time_ms,reading,bpm,leads_off
1341036,516,0,0
1341037,517,0,0
1341037,519,0,0
1341037,515,0,0
1341038,513,0,0
1341038,513,0,0
1341038,511,0,0
1341038,510,0,0
1341039,511,0,0
1341039,510,0,0
1341039,509,0,0
1341040,511,0,0
1341040,507,0,0
1341040,507,0,0
1341041,506,0,0
1341041,507,0,0
1341041,507,0,0
1341041,505,0,0
1341042,507,0,0
1341042,505,0,0
1341042,505,0,0
1341043,506,0,0
1341043,510,0,0
1341043,507,0,0
1341044,507,0,0
1341044,507,0,0
1341044,507,0,0
1341044,509,0,0
1341045,508,0,0
1341045,509,0,0
1341045,508,0,0
1341046,510,0,0
1341046,510,0,0
1341046,513,0,0
1341047,514,0,0
1341047,511,0,0
1341047,511,0,0
1341047,511,0,0
1341048,516,0,0
1341048,512,0,0
1341048,516,0,0
1341049,514,0,0
1341049,514,0,0
1341049,516,0,0
1341050,519,0,0
1341050,515,0,0
1341050,519,0,0
1341050,515,0,0
1341051,517,0,0
1341051,515,0,0
1341051,515,0,0
1341052,515,0,0
1341052,514,0,0
1341052,514,0,0
1341052,514,0,0
1341053,514,0,0
1341053,513,0,0
1341053,514,0,0
1341054,511,0,0
1341054,510,0,0
1341054,510,0,0
1341055,510,0,0
1341055,511,0,0
1341055,509,0,0
1341055,509,0,0
1341056,511,0,0
1341056,506,0,0
1341056,508,0,0
1341057,505,0,0
1341057,504,0,0
1341057,505,0,0
1341058,506,0,0
1341058,508,0,0
1341058,504,0,0
1341058,505,0,0
1341059,506,0,0
1341059,509,0,0
1341059,506,0,0
1341060,507,0,0
1341060,507,0,0
1341060,509,0,0
1341061,513,0,0
1341061,510,0,0
1341061,510,0,0
1341061,513,0,0
1341062,515,0,0
1341062,515,0,0
1341062,516,0,0
1341063,514,0,0
1341063,515,0,0
1341063,518,0,0
1341063,516,0,0
1341064,520,0,0
1341064,520,0,0
1341064,523,0,0
1341065,519,0,0
1341065,523,0,0
1341065,521,0,0
1341066,521,0,0
1341066,522,0,0
1341111,509,0,0
1341112,515,0,0
1341112,516,0,0
1341113,516,0,0
1341113,518,0,0
1341113,519,0,0
1341113,523,0,0
1341114,523,0,0
1341114,524,0,0
1341114,522,0,0
1341115,527,0,0
1341115,525,0,0
1341115,526,0,0
1341116,527,0,0
1341116,529,0,0
1341116,528,0,0
1341116,528,0,0
1341117,529,0,0
1341117,530,0,0
1341117,531,0,0
1341118,530,0,0
1341118,529,0,0
1341118,530,0,0
1341119,534,0,0
1341119,532,0,0
1341119,530,0,0
1341119,532,0,0
1341120,529,0,0
1341120,530,0,0
1341120,528,0,0
1341121,528,0,0
1341121,525,0,0
1341121,525,0,0
1341122,523,0,0
1341122,522,0,0
1341122,523,0,0
1341122,525,0,0
1341123,523,0,0
1341123,520,0,0
1341123,519,0,0
1341124,519,0,0
1341124,519,0,0
1341124,523,0,0
1341125,522,0,0
1341125,518,0,0
1341125,518,0,0
1341125,518,0,0
1341126,519,0,0
1341126,519,0,0
1341126,519,0,0
1341127,518,0,0
1341127,520,0,0
1341127,522,0,0
1341127,519,0,0
1341128,520,0,0
1341128,519,0,0
1341128,520,0,0
1341129,522,0,0
1341129,520,0,0
1341129,521,0,0
1341130,526,0,0
1341130,523,0,0
1341130,522,0,0
1341130,522,0,0
1341131,524,0,0
1341131,523,0,0
1341131,527,0,0
1341132,527,0,0
1341132,526,0,0
1341132,525,0,0
1341133,526,0,0
1341133,525,0,0
1341133,528,0,0
1341133,526,0,0
1341134,526,0,0
1341134,527,0,0
1341134,529,0,0
1341135,527,0,0
1341135,526,0,0
1341135,525,0,0
1341135,525,0,0
1341136,529,0,0
1341136,525,0,0
1341136,523,0,0
1341137,526,0,0
1341137,522,0,0
1341137,522,0,0
1341138,525,0,0
1341138,521,0,0
1341138,520,0,0
1341138,517,0,0
1341139,518,0,0
1341139,516,0,0
1341139,520,0,0
1341140,515,0,0
1341140,514,0,0
1341140,514,0,0
1341141,513,0,0
1341141,512,0,0
1341141,517,0,0
1341193,503,0,0
1341193,508,0,0
1341194,507,0,0
1341194,515,0,0
1341194,516,0,0
1341195,517,0,0
1341195,522,0,0
1341195,525,0,0
1341195,530,0,0
1341196,532,0,0
1341196,536,0,0
1341196,542,0,0
1341197,549,0,0
1341197,553,0,0
1341197,561,0,0
1341198,561,0,0
1341198,565,0,0
1341198,574,0,0
1341198,576,0,0
1341199,583,0,0
1341199,586,0,0
1341199,593,0,0
1341200,598,0,0
1341200,605,0,0
1341200,612,0,0
1341201,617,0,0
1341201,629,0,0
1341201,633,0,0
1341201,638,0,0
1341202,646,0,0
1341202,658,0,0
1341202,660,0,0
1341203,669,0,0
1341203,680,0,0
1341203,691,0,0
1341204,695,0,0
1341204,703,0,0
1341204,711,0,0
1341204,715,0,0
1341205,726,0,0
1341205,729,0,0
1341205,742,0,0
1341206,748,0,0
1341206,758,0,0
1341206,760,0,0
1341206,768,0,0
1341207,784,0,0
1341207,782,0,0
1341207,798,0,0
1341208,797,0,0
1341208,805,0,0
1341208,812,0,0
1341209,823,0,0
1341209,829,0,0
1341209,836,0,0
1341209,844,0,0
1341210,852,0,0
1341210,863,0,0
1341210,869,0,0
1341211,877,0,0
1341211,887,0,0
1341211,896,0,0
1341211,901,0,0
1341212,905,0,0
1341212,914,0,0
1341212,922,0,0
1341213,930,0,0
1341213,936,0,0
1341213,939,0,0
1341214,944,0,0
1341214,948,0,0
1341214,953,0,0
1341214,955,0,0
1341215,961,0,0
1341215,959,0,0
1341215,960,0,0
1341216,965,0,0
1341216,963,0,0
1341216,957,0,0
1341217,956,0,0
1341217,953,0,0
1341217,949,0,0
1341217,944,0,0
1341218,941,0,0
1341218,938,0,0
1341218,929,0,0
1341219,924,0,0
1341219,913,0,0
1341219,904,0,0
1341219,897,0,0
1341220,887,0,0
1341220,874,0,0
1341220,865,0,0
1341221,849,0,0
1341221,835,0,0
1341221,823,0,0
1341222,807,0,0
1341222,793,0,0
1341222,780,0,0
1341222,762,0,0
1341318,505,0,0
1341319,502,0,0
1341319,501,0,0
1341319,501,0,0
1341320,501,0,0
1341320,502,0,0
1341320,501,0,0
1341321,501,0,0
1341321,501,0,0
1341321,499,0,0
1341322,498,0,0
1341322,497,0,0
1341322,497,0,0
1341322,500,0,0
1341323,501,0,0
1341323,496,0,0
1341323,494,0,0
1341324,494,0,0
1341324,497,0,0
1341324,493,0,0
1341325,492,0,0
1341325,496,0,0
1341325,496,0,0
1341325,497,0,0
1341326,492,0,0
1341326,497,0,0
1341326,497,0,0
1341327,494,0,0
1341327,493,0,0
1341327,493,0,0
1341328,494,0,0
1341328,496,0,0
1341328,496,0,0
1341328,495,0,0
1341329,498,0,0
1341329,497,0,0
1341329,496,0,0
1341330,498,0,0
1341330,498,0,0
1341330,502,0,0
1341330,501,0,0
1341331,500,0,0
1341331,501,0,0
1341331,506,0,0
1341332,503,0,0
1341332,502,0,0
1341332,506,0,0
1341333,505,0,0
1341333,505,0,0
1341333,505,0,0
1341333,506,0,0
1341334,505,0,0
1341334,506,0,0
1341334,510,0,0
1341335,505,0,0
1341335,507,0,0
1341335,510,0,0
1341336,511,0,0
1341336,505,0,0
1341336,508,0,0
1341336,505,0,0
1341337,504,0,0
1341337,505,0,0
1341337,505,0,0
1341338,503,0,0
1341338,501,0,0
1341338,503,0,0
1341339,503,0,0
1341339,501,0,0
1341339,501,0,0
1341339,501,0,0
1341340,499,0,0
1341340,499,0,0
1341340,503,0,0
1341341,501,0,0
1341341,499,0,0
1341341,501,0,0
1341342,498,0,0
1341342,497,0,0
1341342,497,0,0
1341342,497,0,0
1341343,497,0,0
1341343,500,0,0
1341343,502,0,0
1341344,500,0,0
1341344,499,0,0
1341344,501,0,0
1341344,501,0,0
1341345,500,0,0
1341345,503,0,0
1341345,502,0,0
1341346,502,0,0
1341346,503,0,0
1341346,506,0,0
1341347,504,0,0
1341347,505,0,0
1341347,505,0,0
1341347,506,0,0
1341348,506,0,0
1341348,511,0,0
1341395,529,0,0
1341395,527,0,0
1341396,529,0,0
1341396,530,0,0
1341396,530,0,0
1341397,533,0,0
1341397,533,0,0
1341397,536,0,0
1341397,536,0,0
1341398,538,0,0
1341398,538,0,0
1341398,535,0,0
1341399,536,0,0
1341399,537,0,0
1341399,538,0,0
1341400,538,0,0
1341400,538,0,0
1341400,538,0,0
1341400,539,0,0
1341401,539,0,0
1341401,540,0,0
1341401,540,0,0
1341402,540,0,0
1341402,540,0,0
1341402,541,0,0
1341403,538,0,0
1341403,542,0,0
1341403,538,0,0
1341403,541,0,0
1341404,538,0,0
1341404,537,0,0
1341404,541,0,0
1341405,536,0,0
1341405,535,0,0
1341405,536,0,0
1341406,535,0,0
1341406,534,0,0
1341406,534,0,0
1341406,534,0,0
1341407,535,0,0
1341407,534,0,0
1341407,535,0,0
1341408,534,0,0
1341408,534,0,0
1341408,534,0,0
1341409,535,0,0
1341409,536,0,0
1341409,536,0,0
1341409,539,0,0
1341410,537,0,0
1341410,538,0,0
1341410,543,0,0
1341411,540,0,0
1341411,543,0,0
1341411,544,0,0
1341411,541,0,0
1341412,547,0,0
1341412,547,0,0
1341412,544,0,0
1341413,548,0,0
1341413,545,0,0
1341413,546,0,0
1341414,547,0,0
1341414,547,0,0
1341414,549,0,0
1341414,553,0,0
1341415,549,0,0
1341415,551,0,0
1341415,552,0,0
1341416,552,0,0
1341416,552,0,0
1341416,551,0,0
1341417,554,0,0
1341417,553,0,0
1341417,552,0,0
1341417,555,0,0
1341418,553,0,0
1341418,553,0,0
1341418,556,0,0
1341419,555,0,0
1341419,553,0,0
1341419,557,0,0
1341419,552,0,0
1341420,553,0,0
1341420,553,0,0
1341420,552,0,0
1341421,555,0,0
1341421,552,0,0
1341421,554,0,0
1341422,551,0,0
1341422,551,0,0
1341422,551,0,0
1341422,551,0,0
1341423,549,0,0
1341423,552,0,0
1341423,552,0,0
1341424,551,0,0
1341424,548,0,0
1341424,549,0,0
1341425,552,0,0
1341479,508,0,0
1341479,508,0,0
1341480,508,0,0
1341480,508,0,0
1341480,510,0,0
1341481,513,0,0
1341481,515,0,0
1341481,509,0,0
1341482,509,0,0
1341482,509,0,0
1341482,510,0,0
1341482,513,0,0
1341483,512,0,0
1341483,509,0,0
1341483,509,0,0
1341484,509,0,0
1341484,514,0,0
1341484,509,0,0
1341485,509,0,0
1341485,510,0,0
1341485,509,0,0
1341485,511,0,0
1341486,506,0,0
1341486,506,0,0
1341486,506,0,0
1341487,504,0,0
1341487,505,0,0
1341487,503,0,0
1341488,501,0,0
1341488,500,0,0
1341488,504,0,0
1341488,497,0,0
1341489,496,0,0
1341489,494,0,0
1341489,493,0,0
1341490,491,0,0
1341490,491,0,0
1341490,490,0,0
1341491,491,0,0
1341491,488,0,0
1341491,487,0,0
1341491,487,0,0
1341492,486,0,0
1341492,484,0,0
1341492,486,0,0
1341493,484,0,0
1341493,483,0,0
1341493,482,0,0
1341493,482,0,0
1341494,481,0,0
1341494,481,0,0
1341494,484,0,0
1341495,483,0,0
1341495,482,0,0
1341495,488,0,0
1341496,484,0,0
1341496,488,0,0
1341496,482,0,0
1341496,484,0,0
1341497,488,0,0
1341497,483,0,0
1341497,484,0,0
1341498,484,0,0
1341498,485,0,0
1341498,486,0,0
1341499,490,0,0
1341499,486,0,0
1341499,489,0,0
1341499,487,0,0
1341500,488,0,0
1341500,487,0,0
1341500,490,0,0
1341501,494,0,0
1341501,489,0,0
1341501,490,0,0
1341502,493,0,0
1341502,489,0,0
1341502,488,0,0
1341502,490,0,0
1341503,490,0,0
1341503,488,0,0
1341503,487,0,0
1341504,487,0,0
1341504,486,0,0
1341504,486,0,0
1341504,485,0,0
1341505,484,0,0
1341505,484,0,0
1341505,483,0,0
1341506,481,0,0
1341506,485,0,0
1341506,480,0,0
1341507,480,0,0
1341507,482,0,0
1341507,478,0,0
1341507,477,0,0
1341508,477,0,0
1341508,476,0,0
1341508,477,0,0
1341509,477,0,0
1341606,488,0,0
1341607,487,0,0
1341607,487,0,0
1341608,486,0,0
1341608,486,0,0
1341608,487,0,0
1341609,489,0,0
1341609,485,0,0
1341609,485,0,0
1341609,489,0,0
1341610,489,0,0
1341610,485,0,0
1341610,485,0,0
1341611,484,0,0
1341611,485,0,0
1341611,485,0,0
1341612,491,0,0
1341612,487,0,0
1341612,488,0,0
1341612,487,0,0
1341613,487,0,0
1341613,489,0,0
1341613,492,0,0
1341614,493,0,0
1341614,494,0,0
1341614,494,0,0
1341615,493,0,0
1341615,492,0,0
1341615,493,0,0
1341615,494,0,0
1341616,499,0,0
1341616,497,0,0
1341616,497,0,0
1341617,502,0,0
1341617,497,0,0
1341617,497,0,0
1341617,502,0,0
1341618,501,0,0
1341618,498,0,0
1341618,498,0,0
1341619,499,0,0
1341619,499,0,0
1341619,498,0,0
1341620,498,0,0
1341620,497,0,0
1341620,497,0,0
1341620,499,0,0
1341621,497,0,0
1341621,497,0,0
1341621,494,0,0
1341622,499,0,0
1341622,497,0,0
1341622,494,0,0
1341623,492,0,0
1341623,491,0,0
1341623,491,0,0
1341623,489,0,0
1341624,489,0,0
1341624,488,0,0
1341624,489,0,0
1341625,488,0,0
1341625,488,0,0
1341625,490,0,0
1341625,489,0,0
1341626,488,0,0
1341626,491,0,0
1341626,489,0,0
1341627,491,0,0
1341627,491,0,0
1341627,491,0,0
1341628,493,0,0
1341628,492,0,0
1341628,493,0,0
1341628,493,0,0
1341629,495,0,0
1341629,495,0,0
1341629,496,0,0
1341630,497,0,0
1341630,501,0,0
1341630,498,0,0
1341631,500,0,0
1341631,499,0,0
1341631,501,0,0
1341631,502,0,0
1341632,506,0,0
1341632,503,0,0
1341632,504,0,0
1341633,503,0,0
1341633,508,0,0
1341633,504,0,0
1341634,508,0,0
1341634,507,0,0
1341634,505,0,0
1341634,505,0,0
1341635,506,0,0
1341635,505,0,0
1341635,506,0,0
1341636,507,0,0
1341636,506,0,0
1341636,505,0,0
1341685,515,0,0
1341686,515,0,0
1341686,511,0,0
1341687,511,0,0
1341687,509,0,0
1341687,509,0,0
1341688,507,0,0
1341688,509,0,0
1341688,509,0,0
1341688,505,0,0
1341689,505,0,0
1341689,503,0,0
1341689,502,0,0
1341690,501,0,0
1341690,500,0,0
1341690,500,0,0
1341690,500,0,0
1341691,502,0,0
1341691,499,0,0
1341691,498,0,0
1341692,498,0,0
1341692,498,0,0
1341692,497,0,0
1341693,497,0,0
1341693,497,0,0
1341693,497,0,0
1341693,502,0,0
1341694,497,0,0
1341694,497,0,0
1341694,497,0,0
1341695,497,0,0
1341695,499,0,0
1341695,503,0,0
1341696,503,0,0
1341696,499,0,0
1341696,500,0,0
1341696,501,0,0
1341697,502,0,0
1341697,505,0,0
1341697,506,0,0
1341698,506,0,0
1341698,503,0,0
1341698,503,0,0
1341699,504,0,0
1341699,506,0,0
1341699,506,0,0
1341699,505,0,0
1341700,507,0,0
1341700,505,0,0
1341700,507,0,0
1341701,506,0,0
1341701,506,0,0
1341701,507,0,0
1341701,506,0,0
1341702,507,0,0
1341702,505,0,0
1341702,509,0,0
1341703,509,0,0
1341703,505,0,0
1341703,505,0,0
1341704,505,0,0
1341704,503,0,0
1341704,504,0,0
1341704,503,0,0
1341705,506,0,0
1341705,505,0,0
1341705,501,0,0
1341706,504,0,0
1341706,500,0,0
1341706,499,0,0
1341707,498,0,0
1341707,500,0,0
1341707,502,0,0
1341707,500,0,0
1341708,500,0,0
1341708,497,0,0
1341708,498,0,0
1341709,499,0,0
1341709,497,0,0
1341709,497,0,0
1341710,500,0,0
1341710,498,0,0
1341710,498,0,0
1341710,502,0,0
1341711,498,0,0
1341711,501,0,0
1341711,498,0,0
1341712,503,0,0
1341712,501,0,0
1341712,500,0,0
1341712,503,0,0
1341713,503,0,0
1341713,505,0,0
1341713,500,0,0
1341714,505,0,0
1341714,503,0,0
1341714,502,0,0
1341715,506,0,0
1341715,503,0,0
1341715,504,0,0
1341809,501,0,0
1341809,502,0,0
1341810,501,0,0
1341810,499,0,0
1341810,500,0,0
1341810,500,0,0
1341811,500,0,0
1341811,503,0,0
1341811,501,0,0
1341812,501,0,0
1341812,500,0,0
1341812,501,0,0
1341813,501,0,0
1341813,502,0,0
1341813,505,0,0
1341813,503,0,0
1341814,504,0,0
1341814,508,0,0
1341814,508,0,0
1341815,506,0,0
1341815,506,0,0
1341815,508,0,0
1341816,510,0,0
1341816,508,0,0
1341816,509,0,0
1341816,511,0,0
1341817,512,0,0
1341817,511,0,0
1341817,513,0,0
1341818,513,0,0
1341818,511,0,0
1341818,513,0,0
1341818,512,0,0
1341819,513,0,0
1341819,512,0,0
1341819,513,0,0
1341820,512,0,0
1341820,512,0,0
1341820,511,0,0
1341821,510,0,0
1341821,509,0,0
1341821,509,0,0
1341821,508,0,0
1341822,508,0,0
1341822,511,0,0
1341822,505,0,0
1341823,505,0,0
1341823,504,0,0
1341823,506,0,0
1341824,502,0,0
1341824,503,0,0
1341824,502,0,0
1341824,505,0,0
1341825,502,0,0
1341825,503,0,0
1341825,501,0,0
1341826,501,0,0
1341826,504,0,0
1341826,500,0,0
1341827,501,0,0
1341827,504,0,0
1341827,502,0,0
1341827,502,0,0
1341828,502,0,0
1341828,506,0,0
1341828,506,0,0
1341829,504,0,0
1341829,507,0,0
1341829,505,0,0
1341829,508,0,0
1341830,506,0,0
1341830,509,0,0
1341830,508,0,0
1341831,507,0,0
1341831,508,0,0
1341831,509,0,0
1341832,511,0,0
1341832,511,0,0
1341832,510,0,0
1341832,511,0,0
1341833,512,0,0
1341833,511,0,0
1341833,513,0,0
1341834,516,0,0
1341834,516,0,0
1341834,516,0,0
1341835,514,0,0
1341835,514,0,0
1341835,513,0,0
1341835,515,0,0
1341836,513,0,0
1341836,517,0,0
1341836,514,0,0
1341837,511,0,0
1341837,513,0,0
1341837,512,0,0
1341837,512,0,0
1341838,515,0,0
1341838,510,0,0
1341838,515,0,0
1341887,519,0,0
1341888,516,0,0
1341888,512,0,0
1341888,513,0,0
1341889,509,0,0
1341889,507,0,0
1341889,508,0,0
1341889,507,0,0
1341890,508,0,0
1341890,505,0,0
1341890,505,0,0
1341891,505,0,0
1341891,503,0,0
1341891,503,0,0
1341892,507,0,0
1341892,504,0,0
1341892,503,0,0
1341892,502,0,0
1341893,503,0,0
1341893,503,0,0
1341893,505,0,0
1341894,507,0,0
1341894,506,0,0
1341894,510,0,0
1341895,508,0,0
1341895,506,0,0
1341895,507,0,0
1341895,511,0,0
1341896,509,0,0
1341896,509,0,0
1341896,514,0,0
1341897,510,0,0
1341897,511,0,0
1341897,510,0,0
1341898,513,0,0
1341898,513,0,0
1341898,516,0,0
1341898,518,0,0
1341899,521,0,0
1341899,519,0,0
1341899,516,0,0
1341900,520,0,0
1341900,517,0,0
1341900,520,0,0
1341901,518,0,0
1341901,518,0,0
1341901,521,0,0
1341901,517,0,0
1341902,519,0,0
1341902,517,0,0
1341902,518,0,0
1341903,518,0,0
1341903,518,0,0
1341903,516,0,0
1341903,517,0,0
1341904,517,0,0
1341904,515,0,0
1341904,513,0,0
1341905,514,0,0
1341905,512,0,0
1341905,514,0,0
1341906,508,0,0
1341906,507,0,0
1341906,508,0,0
1341906,506,0,0
1341907,508,0,0
1341907,503,0,0
1341907,503,0,0
1341908,500,0,0
1341908,504,0,0
1341908,499,0,0
1341909,498,0,0
1341909,497,0,0
1341909,497,0,0
1341909,502,0,0
1341910,498,0,0
1341910,500,0,0
1341910,497,0,0
1341911,501,0,0
1341911,496,0,0
1341911,497,0,0
1341911,496,0,0
1341912,497,0,0
1341912,497,0,0
1341912,499,0,0
1341913,497,0,0
1341913,498,0,0
1341913,498,0,0
1341914,500,0,0
1341914,501,0,0
1341914,500,0,0
1341914,503,0,0
1341915,503,0,0
1341915,507,0,0
1341915,503,0,0
1341916,505,0,0
1341916,507,0,0
1341916,508,0,0
1341917,507,0,0
1341917,508,0,0
1342011,529,0,0
1342012,527,0,0
1342012,524,0,0
1342012,522,0,0
1342013,519,0,0
1342013,517,0,0
1342013,515,0,0
1342014,514,0,0
1342014,514,0,0
1342014,508,0,0
1342014,506,0,0
1342015,507,0,0
1342015,504,0,0
1342015,502,0,0
1342016,501,0,0
1342016,502,0,0
1342016,502,0,0
1342017,496,0,0
1342017,499,0,0
1342017,499,0,0
1342017,493,0,0
1342018,492,0,0
1342018,492,0,0
1342018,490,0,0
1342019,490,0,0
1342019,489,0,0
1342019,487,0,0
1342020,491,0,0
1342020,487,0,0
1342020,485,0,0
1342020,483,0,0
1342021,485,0,0
1342021,483,0,0
1342021,481,0,0
1342022,482,0,0
1342022,480,0,0
1342022,480,0,0
1342022,481,0,0
1342023,478,0,0
1342023,478,0,0
1342023,484,0,0
1342024,479,0,0
1342024,482,0,0
1342024,478,0,0
1342025,478,0,0
1342025,483,0,0
1342025,478,0,0
1342025,483,0,0
1342026,479,0,0
1342026,479,0,0
1342026,480,0,0
1342027,480,0,0
1342027,480,0,0
1342027,482,0,0
1342028,481,0,0
1342028,484,0,0
1342028,486,0,0
1342028,485,0,0
1342029,485,0,0
1342029,486,0,0
1342029,488,0,0
1342030,486,0,0
1342030,492,0,0
1342030,493,0,0
1342030,490,0,0
1342031,495,0,0
1342031,490,0,0
1342031,491,0,0
1342032,494,0,0
1342032,493,0,0
1342032,493,0,0
1342033,495,0,0
1342033,495,0,0
1342033,496,0,0
1342033,500,0,0
1342034,496,0,0
1342034,496,0,0
1342034,495,0,0
1342035,499,0,0
1342035,498,0,0
1342035,495,0,0
1342036,497,0,0
1342036,494,0,0
1342036,496,0,0
1342036,496,0,0
1342037,497,0,0
1342037,493,0,0
1342037,492,0,0
1342038,491,0,0
1342038,491,0,0
1342038,488,0,0
1342039,489,0,0
1342039,489,0,0
1342039,488,0,0
1342039,491,0,0
1342040,484,0,0
1342040,487,0,0
1342040,484,0,0
1342041,485,0,0
1342041,487,0,0
1342136,515,0,0
1342136,514,0,0
1342137,513,0,0
1342137,511,0,0
1342137,511,0,0
1342138,516,0,0
1342138,510,0,0
1342138,515,0,0
1342138,510,0,0
1342139,509,0,0
1342139,509,0,0
1342139,509,0,0
1342140,508,0,0
1342140,508,0,0
1342140,507,0,0
1342141,506,0,0
1342141,506,0,0
1342141,510,0,0
1342141,507,0,0
1342142,506,0,0
1342142,510,0,0
1342142,506,0,0
1342143,511,0,0
1342143,507,0,0
1342143,506,0,0
1342143,507,0,0
1342144,508,0,0
1342144,510,0,0
1342144,509,0,0
1342145,510,0,0
1342145,510,0,0
1342145,514,0,0
1342146,511,0,0
1342146,513,0,0
1342146,514,0,0
1342146,515,0,0
1342147,514,0,0
1342147,515,0,0
1342147,520,0,0
1342148,518,0,0
1342148,518,0,0
1342148,518,0,0
1342149,519,0,0
1342149,520,0,0
1342149,521,0,0
1342149,525,0,0
1342150,525,0,0
1342150,523,0,0
1342150,525,0,0
1342151,525,0,0
1342151,526,0,0
1342151,526,0,0
1342151,527,0,0
1342152,528,0,0
1342152,528,0,0
1342152,528,0,0
1342153,529,0,0
1342153,529,0,0
1342153,528,0,0
1342154,530,0,0
1342154,530,0,0
1342154,527,0,0
1342154,527,0,0
1342155,530,0,0
1342155,528,0,0
1342155,527,0,0
1342156,527,0,0
1342156,527,0,0
1342156,528,0,0
1342157,527,0,0
1342157,527,0,0
1342157,528,0,0
1342157,527,0,0
1342158,527,0,0
1342158,531,0,0
1342158,531,0,0
1342159,529,0,0
1342159,530,0,0
1342159,529,0,0
1342160,530,0,0
1342160,532,0,0
1342160,530,0,0
1342160,531,0,0
1342161,533,0,0
1342161,532,0,0
1342161,538,0,0
1342162,533,0,0
1342162,534,0,0
1342162,537,0,0
1342163,536,0,0
1342163,538,0,0
1342163,538,0,0
1342163,539,0,0
1342164,540,0,0
1342164,541,0,0
1342164,541,0,0
1342165,542,0,0
1342165,542,0,0
1342165,543,0,0
1342165,547,0,0
1342213,554,0,0
1342214,554,0,0
1342214,553,0,0
1342215,557,0,0
1342215,556,0,0
1342215,557,0,0
1342216,554,0,0
1342216,554,0,0
1342216,554,0,0
1342216,555,0,0
1342217,554,0,0
1342217,554,0,0
1342217,553,0,0
1342218,557,0,0
1342218,556,0,0
1342218,552,0,0
1342219,551,0,0
1342219,550,0,0
1342219,555,0,0
1342219,550,0,0
1342220,550,0,0
1342220,548,0,0
1342220,549,0,0
1342221,546,0,0
1342221,545,0,0
1342221,548,0,0
1342222,543,0,0
1342222,542,0,0
1342222,544,0,0
1342222,539,0,0
1342223,539,0,0
1342223,537,0,0
1342223,538,0,0
1342224,536,0,0
1342224,539,0,0
1342224,534,0,0
1342225,534,0,0
1342225,532,0,0
1342225,532,0,0
1342225,531,0,0
1342226,533,0,0
1342226,532,0,0
1342226,530,0,0
1342227,529,0,0
1342227,529,0,0
1342227,528,0,0
1342228,532,0,0
1342228,528,0,0
1342228,528,0,0
1342228,528,0,0
1342229,528,0,0
1342229,527,0,0
1342229,527,0,0
1342230,527,0,0
1342230,527,0,0
1342230,530,0,0
1342230,529,0,0
1342231,530,0,0
1342231,528,0,0
1342231,526,0,0
1342232,528,0,0
1342232,526,0,0
1342232,529,0,0
1342233,525,0,0
1342233,524,0,0
1342233,526,0,0
1342233,525,0,0
1342234,523,0,0
1342234,523,0,0
1342234,522,0,0
1342235,522,0,0
1342235,521,0,0
1342235,520,0,0
1342236,518,0,0
1342236,518,0,0
1342236,520,0,0
1342236,519,0,0
1342237,515,0,0
1342237,515,0,0
1342237,515,0,0
1342238,511,0,0
1342238,511,0,0
1342238,509,0,0
1342239,508,0,0
1342239,507,0,0
1342239,506,0,0
1342239,507,0,0
1342240,503,0,0
1342240,505,0,0
1342240,500,0,0
1342241,499,0,0
1342241,499,0,0
1342241,498,0,0
1342241,498,0,0
1342242,497,0,0
1342242,500,0,0
1342242,498,0,0
1342243,495,0,0
1342243,493,0,0
1342243,494,0,0
1342335,498,0,0
1342335,495,0,0
1342336,495,0,0
1342336,499,0,0
1342336,493,0,0
1342337,498,0,0
1342337,492,0,0
1342337,492,0,0
1342337,491,0,0
1342338,493,0,0
1342338,491,0,0
1342338,490,0,0
1342339,491,0,0
1342339,489,0,0
1342339,486,0,0
1342340,485,0,0
1342340,485,0,0
1342340,489,0,0
1342340,490,0,0
1342341,483,0,0
1342341,484,0,0
1342341,483,0,0
1342342,483,0,0
1342342,482,0,0
1342342,487,0,0
1342343,482,0,0
1342343,487,0,0
1342343,482,0,0
1342343,487,0,0
1342344,487,0,0
1342344,483,0,0
1342344,484,0,0
1342345,486,0,0
1342345,485,0,0
1342345,486,0,0
1342345,486,0,0
1342346,488,0,0
1342346,493,0,0
1342346,490,0,0
1342347,488,0,0
1342347,490,0,0
1342347,493,0,0
1342348,495,0,0
1342348,496,0,0
1342348,494,0,0
1342348,494,0,0
1342349,494,0,0
1342349,495,0,0
1342349,496,0,0
1342350,499,0,0
1342350,498,0,0
1342350,497,0,0
1342350,497,0,0
1342351,498,0,0
1342351,499,0,0
1342351,499,0,0
1342352,498,0,0
1342352,498,0,0
1342352,501,0,0
1342353,498,0,0
1342353,498,0,0
1342353,498,0,0
1342353,497,0,0
1342354,498,0,0
1342354,496,0,0
1342354,499,0,0
1342355,497,0,0
1342355,493,0,0
1342355,497,0,0
1342356,492,0,0
1342356,493,0,0
1342356,489,0,0
1342356,489,0,0
1342357,489,0,0
1342357,491,0,0
1342357,487,0,0
1342358,488,0,0
1342358,487,0,0
1342358,489,0,0
1342359,490,0,0
1342359,485,0,0
1342359,486,0,0
1342359,485,0,0
1342360,486,0,0
1342360,485,0,0
1342360,486,0,0
1342361,486,0,0
1342361,489,0,0
1342361,492,0,0
1342361,488,0,0
1342362,488,0,0
1342362,489,0,0
1342362,490,0,0
1342363,494,0,0
1342363,491,0,0
1342363,495,0,0
1342364,493,0,0
1342364,493,0,0
1342364,493,0,0
1342364,493,0,0
1342410,498,0,0
1342411,493,0,0
1342411,494,0,0
1342412,494,0,0
1342412,495,0,0
1342412,496,0,0
1342413,497,0,0
1342413,497,0,0
1342413,497,0,0
1342413,499,0,0
1342414,499,0,0
1342414,502,0,0
1342414,501,0,0
1342415,504,0,0
1342415,503,0,0
1342415,504,0,0
1342415,505,0,0
1342416,504,0,0
1342416,506,0,0
1342416,505,0,0
1342417,506,0,0
1342417,507,0,0
1342417,507,0,0
1342418,511,0,0
1342418,508,0,0
1342418,507,0,0
1342418,512,0,0
1342419,508,0,0
1342419,512,0,0
1342419,508,0,0
1342420,508,0,0
1342420,508,0,0
1342420,507,0,0
1342421,506,0,0
1342421,505,0,0
1342421,505,0,0
1342421,508,0,0
1342422,504,0,0
1342422,507,0,0
1342422,505,0,0
1342423,504,0,0
1342423,501,0,0
1342423,499,0,0
1342424,504,0,0
1342424,500,0,0
1342424,499,0,0
1342424,498,0,0
1342425,502,0,0
1342425,497,0,0
1342425,497,0,0
1342426,502,0,0
1342426,496,0,0
1342426,499,0,0
1342427,498,0,0
1342427,497,0,0
1342427,496,0,0
1342427,497,0,0
1342428,498,0,0
1342428,498,0,0
1342428,497,0,0
1342429,497,0,0
1342429,497,0,0
1342429,499,0,0
1342429,497,0,0
1342430,500,0,0
1342430,502,0,0
1342430,498,0,0
1342431,499,0,0
1342431,505,0,0
1342431,501,0,0
1342432,500,0,0
1342432,502,0,0
1342432,500,0,0
1342433,502,0,0
1342433,503,0,0
1342433,504,0,0
1342433,504,0,0
1342434,503,0,0
1342434,504,0,0
1342434,503,0,0
1342435,503,0,0
1342435,505,0,0
1342435,503,0,0
1342435,504,0,0
1342436,503,0,0
1342436,505,0,0
1342436,504,0,0
1342437,503,0,0
1342437,504,0,0
1342437,503,0,0
1342438,501,0,0
1342438,501,0,0
1342438,501,0,0
1342438,505,0,0
1342439,500,0,0
1342439,500,0,0
1342439,500,0,0
1342440,502,0,0
1342440,500,0,0
1342440,504,0,0
1342491,495,0,0
1342491,498,0,0
1342492,494,0,0
1342492,494,0,0
1342492,494,0,0
1342493,493,0,0
1342493,494,0,0
1342493,495,0,0
1342494,493,0,0
1342494,499,0,0
1342494,496,0,0
1342495,494,0,0
1342495,495,0,0
1342495,495,0,0
1342495,495,0,0
1342496,496,0,0
1342496,497,0,0
1342496,500,0,0
1342497,502,0,0
1342497,499,0,0
1342497,499,0,0
1342497,503,0,0
1342498,500,0,0
1342498,500,0,0
1342498,501,0,0
1342499,504,0,0
1342499,505,0,0
1342499,503,0,0
1342500,503,0,0
1342500,504,0,0
1342500,504,0,0
1342500,506,0,0
1342501,506,0,0
1342501,507,0,0
1342501,506,0,0
1342502,510,0,0
1342502,507,0,0
1342502,507,0,0
1342503,507,0,0
1342503,507,0,0
1342503,507,0,0
1342503,505,0,0
1342504,506,0,0
1342504,509,0,0
1342504,505,0,0
1342505,504,0,0
1342505,503,0,0
1342505,503,0,0
1342505,502,0,0
1342506,501,0,0
1342506,504,0,0
1342506,500,0,0
1342507,499,0,0
1342507,500,0,0
1342507,497,0,0
1342508,501,0,0
1342508,498,0,0
1342508,497,0,0
1342508,500,0,0
1342509,498,0,0
1342509,496,0,0
1342509,497,0,0
1342510,499,0,0
1342510,499,0,0
1342510,496,0,0
1342511,500,0,0
1342511,497,0,0
1342511,497,0,0
1342511,499,0,0
1342512,499,0,0
1342512,501,0,0
1342512,500,0,0
1342513,500,0,0
1342513,501,0,0
1342513,506,0,0
1342514,503,0,0
1342514,505,0,0
1342514,503,0,0
1342514,504,0,0
1342515,505,0,0
1342515,508,0,0
1342515,507,0,0
1342516,507,0,0
1342516,508,0,0
1342516,508,0,0
1342517,512,0,0
1342517,510,0,0
1342517,510,0,0
1342517,509,0,0
1342518,510,0,0
1342518,516,0,0
1342518,510,0,0
1342519,511,0,0
1342519,510,0,0
1342519,510,0,0
1342520,509,0,0
1342520,509,0,0
1342520,510,0,0
1342520,508,0,0
1342521,508,0,0
1342615,509,0,0
1342616,507,0,0
1342616,507,0,0
1342617,512,0,0
1342617,508,0,0
1342617,508,0,0
1342617,509,0,0
1342618,513,0,0
1342618,510,0,0
1342618,514,0,0
1342619,510,0,0
1342619,511,0,0
1342619,509,0,0
1342620,509,0,0
1342620,509,0,0
1342620,513,0,0
1342620,510,0,0
1342621,507,0,0
1342621,507,0,0
1342621,508,0,0
1342622,506,0,0
1342622,507,0,0
1342622,506,0,0
1342623,504,0,0
1342623,504,0,0
1342623,503,0,0
1342623,502,0,0
1342624,506,0,0
1342624,502,0,0
1342624,501,0,0
1342625,499,0,0
1342625,503,0,0
1342625,499,0,0
1342625,500,0,0
1342626,498,0,0
1342626,498,0,0
1342626,502,0,0
1342627,499,0,0
1342627,498,0,0
1342627,499,0,0
1342628,499,0,0
1342628,499,0,0
1342628,501,0,0
1342628,501,0,0
1342629,505,0,0
1342629,502,0,0
1342629,503,0,0
1342630,502,0,0
1342630,502,0,0
1342630,505,0,0
1342630,506,0,0
1342631,506,0,0
1342631,507,0,0
1342631,507,0,0
1342632,507,0,0
1342632,511,0,0
1342632,508,0,0
1342633,509,0,0
1342633,509,0,0
1342633,509,0,0
1342633,511,0,0
1342634,510,0,0
1342634,511,0,0
1342634,510,0,0
1342635,510,0,0
1342635,516,0,0
1342635,514,0,0
1342636,511,0,0
1342636,509,0,0
1342636,513,0,0
1342636,508,0,0
1342637,506,0,0
1342637,510,0,0
1342637,509,0,0
1342638,505,0,0
1342638,504,0,0
1342638,506,0,0
1342639,502,0,0
1342639,501,0,0
1342639,503,0,0
1342639,498,0,0
1342640,497,0,0
1342640,496,0,0
1342640,496,0,0
1342641,493,0,0
1342641,494,0,0
1342641,493,0,0
1342641,491,0,0
1342642,496,0,0
1342642,493,0,0
1342642,489,0,0
1342643,489,0,0
1342643,487,0,0
1342643,486,0,0
1342644,487,0,0
1342644,486,0,0
1342644,487,0,0
1342644,484,0,0
1342645,484,0,0
1342645,488,0,0
1342694,431,0,0
1342695,431,0,0
1342695,432,0,0
1342695,432,0,0
1342696,438,0,0
1342696,436,0,0
1342696,439,0,0
1342696,442,0,0
1342697,445,0,0
1342697,448,0,0
1342697,452,0,0
1342698,456,0,0
1342698,461,0,0
1342698,464,0,0
1342699,470,0,0
1342699,479,0,0
1342699,482,0,0
1342699,484,0,0
1342700,490,0,0
1342700,495,0,0
1342700,500,0,0
1342701,505,0,0
1342701,511,0,0
1342701,516,0,0
1342701,520,0,0
1342702,529,0,0
1342702,532,0,0
1342702,535,0,0
1342703,541,0,0
1342703,546,0,0
1342703,548,0,0
1342704,550,0,0
1342704,553,0,0
1342704,558,0,0
1342704,561,0,0
1342705,560,0,0
1342705,561,0,0
1342705,561,0,0
1342706,563,0,0
1342706,564,0,0
1342706,568,0,0
1342707,564,0,0
1342707,565,0,0
1342707,563,0,0
1342707,562,0,0
1342708,563,0,0
1342708,561,0,0
1342708,559,0,0
1342709,558,0,0
1342709,559,0,0
1342709,560,0,0
1342709,555,0,0
1342710,552,0,0
1342710,550,0,0
1342710,549,0,0
1342711,549,0,0
1342711,549,0,0
1342711,544,0,0
1342712,540,0,0
1342712,539,0,0
1342712,540,0,0
1342712,535,0,0
1342713,534,0,0
1342713,531,0,0
1342713,528,0,0
1342714,529,0,0
1342714,527,0,0
1342714,523,0,0
1342715,520,0,0
1342715,518,0,0
1342715,517,0,0
1342715,516,0,0
1342716,513,0,0
1342716,515,0,0
1342716,510,0,0
1342717,508,0,0
1342717,507,0,0
1342717,504,0,0
1342718,501,0,0
1342718,500,0,0
1342718,503,0,0
1342718,500,0,0
1342719,496,0,0
1342719,498,0,0
1342719,492,0,0
1342720,496,0,0
1342720,496,0,0
1342720,490,0,0
1342720,489,0,0
1342721,488,0,0
1342721,486,0,0
1342721,488,0,0
1342722,485,0,0
1342722,485,0,0
1342722,483,0,0
1342723,482,0,0
1342723,483,0,0
1342723,482,0,0
1342723,482,0,0
1342724,481,0,0
1342813,501,0,0
1342813,500,0,0
1342814,501,0,0
1342814,501,0,0
1342814,506,0,0
1342815,504,0,0
1342815,503,0,0
1342815,505,0,0
1342816,504,0,0
1342816,507,0,0
1342816,509,0,0
1342816,507,0,0
1342817,507,0,0
1342817,507,0,0
1342817,508,0,0
1342818,508,0,0
1342818,509,0,0
1342818,508,0,0
1342819,509,0,0
1342819,509,0,0
1342819,510,0,0
1342819,513,0,0
1342820,509,0,0
1342820,512,0,0
1342820,509,0,0
1342821,509,0,0
1342821,509,0,0
1342821,508,0,0
1342821,508,0,0
1342822,510,0,0
1342822,508,0,0
1342822,511,0,0
1342823,507,0,0
1342823,511,0,0
1342823,506,0,0
1342824,505,0,0
1342824,505,0,0
1342824,506,0,0
1342824,505,0,0
1342825,505,0,0
1342825,504,0,0
1342825,505,0,0
1342826,504,0,0
1342826,505,0,0
1342826,504,0,0
1342827,504,0,0
1342827,506,0,0
1342827,504,0,0
1342827,505,0,0
1342828,507,0,0
1342828,505,0,0
1342828,505,0,0
1342829,509,0,0
1342829,507,0,0
1342829,505,0,0
1342830,506,0,0
1342830,506,0,0
1342830,507,0,0
1342830,507,0,0
1342831,507,0,0
1342831,508,0,0
1342831,512,0,0
1342832,509,0,0
1342832,513,0,0
1342832,509,0,0
1342832,510,0,0
1342833,513,0,0
1342833,511,0,0
1342833,513,0,0
1342834,514,0,0
1342834,515,0,0
1342834,515,0,0
1342835,514,0,0
1342835,515,0,0
1342835,516,0,0
1342835,516,0,0
1342836,515,0,0
1342836,516,0,0
1342836,516,0,0
1342837,520,0,0
1342837,515,0,0
1342837,516,0,0
1342838,516,0,0
1342838,514,0,0
1342838,515,0,0
1342838,515,0,0
1342839,514,0,0
1342839,513,0,0
1342839,512,0,0
1342840,515,0,0
1342840,514,0,0
1342840,513,0,0
1342840,511,0,0
1342841,514,0,0
1342841,516,0,0
1342841,510,0,0
1342842,510,0,0
1342842,510,0,0
1342842,510,0,0
1342843,514,0,0
1342887,568,0,0
1342887,568,0,0
1342888,567,0,0
1342888,565,0,0
1342888,564,0,0
1342888,563,0,0
1342889,564,0,0
1342889,563,0,0
1342889,564,0,0
1342890,566,0,0
1342890,566,0,0
1342890,563,0,0
1342891,560,0,0
1342891,566,0,0
1342891,561,0,0
1342891,558,0,0
1342892,560,0,0
1342892,563,0,0
1342892,560,0,0
1342893,559,0,0
1342893,558,0,0
1342893,560,0,0
1342894,559,0,0
1342894,559,0,0
1342894,561,0,0
1342894,559,0,0
1342895,560,0,0
1342895,560,0,0
1342895,561,0,0
1342896,563,0,0
1342896,563,0,0
1342896,561,0,0
1342897,561,0,0
1342897,564,0,0
1342897,562,0,0
1342897,565,0,0
1342898,565,0,0
1342898,565,0,0
1342898,565,0,0
1342899,565,0,0
1342899,565,0,0
1342899,565,0,0
1342900,567,0,0
1342900,568,0,0
1342900,568,0,0
1342900,571,0,0
1342901,569,0,0
1342901,573,0,0
1342901,569,0,0
1342902,573,0,0
1342902,570,0,0
1342902,570,0,0
1342903,570,0,0
1342903,570,0,0
1342903,571,0,0
1342903,569,0,0
1342904,571,0,0
1342904,568,0,0
1342904,567,0,0
1342905,567,0,0
1342905,570,0,0
1342905,570,0,0
1342905,565,0,0
1342906,563,0,0
1342906,562,0,0
1342906,561,0,0
1342907,560,0,0
1342907,560,0,0
1342907,558,0,0
1342908,558,0,0
1342908,557,0,0
1342908,556,0,0
1342908,556,0,0
1342909,557,0,0
1342909,554,0,0
1342909,554,0,0
1342910,558,0,0
1342910,553,0,0
1342910,555,0,0
1342911,554,0,0
1342911,555,0,0
1342911,554,0,0
1342911,554,0,0
1342912,553,0,0
1342912,554,0,0
1342912,553,0,0
1342913,554,0,0
1342913,553,0,0
1342913,557,0,0
1342914,554,0,0
1342914,558,0,0
1342914,556,0,0
1342914,555,0,0
1342915,555,0,0
1342915,555,0,0
1342915,555,0,0
1342916,557,0,0
1342916,557,0,0
1342916,556,0,0
1342916,556,0,0
1342966,492,0,0
1342967,496,0,0
1342967,501,0,0
1342968,496,0,0
1342968,500,0,0
1342968,496,0,0
1342969,497,0,0
1342969,497,0,0
1342969,496,0,0
1342969,495,0,0
1342970,495,0,0
1342970,496,0,0
1342970,495,0,0
1342971,494,0,0
1342971,494,0,0
1342971,495,0,0
1342972,493,0,0
1342972,495,0,0
1342972,493,0,0
1342972,488,0,0
1342973,488,0,0
1342973,489,0,0
1342973,485,0,0
1342974,485,0,0
1342974,484,0,0
1342974,487,0,0
1342975,482,0,0
1342975,481,0,0
1342975,486,0,0
1342975,480,0,0
1342976,485,0,0
1342976,479,0,0
1342976,479,0,0
1342977,479,0,0
1342977,479,0,0
1342977,478,0,0
1342978,478,0,0
1342978,483,0,0
1342978,481,0,0
1342978,480,0,0
1342979,481,0,0
1342979,480,0,0
1342979,483,0,0
1342980,482,0,0
1342980,481,0,0
1342980,482,0,0
1342980,482,0,0
1342981,483,0,0
1342981,487,0,0
1342981,490,0,0
1342982,486,0,0
1342982,484,0,0
1342982,486,0,0
1342983,487,0,0
1342983,488,0,0
1342983,492,0,0
1342983,488,0,0
1342984,488,0,0
1342984,490,0,0
1342984,489,0,0
1342985,488,0,0
1342985,492,0,0
1342985,489,0,0
1342985,490,0,0
1342986,489,0,0
1342986,491,0,0
1342986,489,0,0
1342987,489,0,0
1342987,492,0,0
1342987,487,0,0
1342988,491,0,0
1342988,485,0,0
1342988,485,0,0
1342988,484,0,0
1342989,484,0,0
1342989,483,0,0
1342989,483,0,0
1342990,483,0,0
1342990,481,0,0
1342990,481,0,0
1342991,484,0,0
1342991,482,0,0
1342991,479,0,0
1342991,479,0,0
1342992,478,0,0
1342992,479,0,0
1342992,478,0,0
1342993,478,0,0
1342993,479,0,0
1342993,479,0,0
1342994,480,0,0
1342994,481,0,0
1342994,479,0,0
1342994,483,0,0
1342995,485,0,0
1342995,481,0,0
1342995,482,0,0
1342996,482,0,0
1342996,486,0,0
1342996,484,0,0
1343090,502,0,0
1343091,500,0,0
1343091,499,0,0
1343091,499,0,0
1343092,500,0,0
1343092,500,0,0
1343092,501,0,0
1343093,502,0,0
1343093,499,0,0
1343093,497,0,0
1343094,498,0,0
1343094,497,0,0
1343094,496,0,0
1343094,497,0,0
1343095,500,0,0
1343095,501,0,0
1343095,500,0,0
1343096,497,0,0
1343096,498,0,0
1343096,499,0,0
1343097,501,0,0
1343097,498,0,0
1343097,504,0,0
1343097,499,0,0
1343098,500,0,0
1343098,500,0,0
1343098,500,0,0
1343099,501,0,0
1343099,502,0,0
1343099,507,0,0
1343099,503,0,0
1343100,504,0,0
1343100,504,0,0
1343100,504,0,0
1343101,507,0,0
1343101,508,0,0
1343101,508,0,0
1343102,506,0,0
1343102,507,0,0
1343102,509,0,0
1343102,508,0,0
1343103,512,0,0
1343103,508,0,0
1343103,508,0,0
1343104,510,0,0
1343104,507,0,0
1343104,505,0,0
1343105,507,0,0
1343105,508,0,0
1343105,504,0,0
1343105,504,0,0
1343106,503,0,0
1343106,502,0,0
1343106,502,0,0
1343107,506,0,0
1343107,501,0,0
1343107,500,0,0
1343107,500,0,0
1343108,501,0,0
1343108,500,0,0
1343108,499,0,0
1343109,500,0,0
1343109,498,0,0
1343109,499,0,0
1343110,497,0,0
1343110,501,0,0
1343110,501,0,0
1343110,498,0,0
1343111,497,0,0
1343111,499,0,0
1343111,498,0,0
1343112,499,0,0
1343112,499,0,0
1343112,499,0,0
1343113,501,0,0
1343113,500,0,0
1343113,501,0,0
1343113,503,0,0
1343114,503,0,0
1343114,504,0,0
1343114,504,0,0
1343115,505,0,0
1343115,505,0,0
1343115,504,0,0
1343116,506,0,0
1343116,507,0,0
1343116,507,0,0
1343116,508,0,0
1343117,508,0,0
1343117,509,0,0
1343117,508,0,0
1343118,509,0,0
1343118,509,0,0
1343118,510,0,0
1343119,509,0,0
1343119,512,0,0
1343119,509,0,0
1343119,509,0,0
1343120,514,0,0
1343120,513,0,0
1343166,513,0,0
1343167,511,0,0
1343167,510,0,0
1343168,511,0,0
1343168,511,0,0
1343168,511,0,0
1343169,513,0,0
1343169,511,0,0
1343169,511,0,0
1343169,511,0,0
1343170,513,0,0
1343170,514,0,0
1343170,510,0,0
1343171,510,0,0
1343171,508,0,0
1343171,510,0,0
1343172,507,0,0
1343172,505,0,0
1343172,504,0,0
1343172,503,0,0
1343173,505,0,0
1343173,500,0,0
1343173,504,0,0
1343174,501,0,0
1343174,499,0,0
1343174,498,0,0
1343175,498,0,0
1343175,497,0,0
1343175,497,0,0
1343175,495,0,0
1343176,495,0,0
1343176,495,0,0
1343176,497,0,0
1343177,495,0,0
1343177,495,0,0
1343177,496,0,0
1343178,496,0,0
1343178,500,0,0
1343178,496,0,0
1343178,497,0,0
1343179,499,0,0
1343179,499,0,0
1343179,501,0,0
1343180,501,0,0
1343180,501,0,0
1343180,506,0,0
1343180,501,0,0
1343181,503,0,0
1343181,506,0,0
1343181,505,0,0
1343182,506,0,0
1343182,506,0,0
1343182,508,0,0
1343183,508,0,0
1343183,511,0,0
1343183,509,0,0
1343183,509,0,0
1343184,514,0,0
1343184,511,0,0
1343184,511,0,0
1343185,516,0,0
1343185,511,0,0
1343185,512,0,0
1343186,511,0,0
1343186,512,0,0
1343186,511,0,0
1343186,512,0,0
1343187,511,0,0
1343187,511,0,0
1343187,510,0,0
1343188,510,0,0
1343188,510,0,0
1343188,510,0,0
1343189,511,0,0
1343189,509,0,0
1343189,509,0,0
1343189,506,0,0
1343190,504,0,0
1343190,503,0,0
1343190,503,0,0
1343191,503,0,0
1343191,501,0,0
1343191,504,0,0
1343191,500,0,0
1343192,504,0,0
1343192,500,0,0
1343192,500,0,0
1343193,500,0,0
1343193,501,0,0
1343193,500,0,0
1343194,503,0,0
1343194,499,0,0
1343194,505,0,0
1343194,499,0,0
1343195,504,0,0
1343195,501,0,0
1343195,500,0,0
1343196,500,0,0
1343196,500,0,0
1343196,500,0,0
1343287,512,0,0
1343288,512,0,0
1343288,507,0,0
1343288,513,0,0
1343289,507,0,0
1343289,510,0,0
1343289,506,0,0
1343289,505,0,0
1343290,503,0,0
1343290,502,0,0
1343290,507,0,0
1343291,502,0,0
1343291,500,0,0
1343291,502,0,0
1343292,501,0,0
1343292,499,0,0
1343292,504,0,0
1343292,498,0,0
1343293,505,0,0
1343293,499,0,0
1343293,502,0,0
1343294,499,0,0
1343294,500,0,0
1343294,503,0,0
1343295,500,0,0
1343295,501,0,0
1343295,500,0,0
1343295,503,0,0
1343296,503,0,0
1343296,500,0,0
1343296,502,0,0
1343297,501,0,0
1343297,501,0,0
1343297,503,0,0
1343298,501,0,0
1343298,501,0,0
1343298,505,0,0
1343298,502,0,0
1343299,502,0,0
1343299,502,0,0
1343299,504,0,0
1343300,505,0,0
1343300,504,0,0
1343300,506,0,0
1343300,505,0,0
1343301,505,0,0
1343301,505,0,0
1343301,507,0,0
1343302,504,0,0
1343302,507,0,0
1343302,506,0,0
1343303,505,0,0
1343303,506,0,0
1343303,506,0,0
1343303,505,0,0
1343304,505,0,0
1343304,505,0,0
1343304,504,0,0
1343305,508,0,0
1343305,507,0,0
1343305,504,0,0
1343306,501,0,0
1343306,501,0,0
1343306,504,0,0
1343306,499,0,0
1343307,498,0,0
1343307,497,0,0
1343307,501,0,0
1343308,496,0,0
1343308,495,0,0
1343308,495,0,0
1343309,494,0,0
1343309,498,0,0
1343309,494,0,0
1343309,493,0,0
1343310,493,0,0
1343310,493,0,0
1343310,493,0,0
1343311,493,0,0
1343311,494,0,0
1343311,495,0,0
1343311,494,0,0
1343312,495,0,0
1343312,496,0,0
1343312,499,0,0
1343313,497,0,0
1343313,498,0,0
1343313,499,0,0
1343314,498,0,0
1343314,499,0,0
1343314,499,0,0
1343314,500,0,0
1343315,500,0,0
1343315,502,0,0
1343315,503,0,0
1343316,503,0,0
1343316,503,0,0
1343316,505,0,0
1343317,504,0,0
1343317,505,0,0
1343361,936,0,0
1343362,943,0,0
1343362,954,0,0
1343362,948,0,0
1343363,952,0,0
1343363,950,0,0
1343363,956,0,0
1343364,955,0,0
1343364,950,0,0
1343364,948,0,0
1343365,945,0,0
1343365,943,0,0
1343365,941,0,0
1343365,934,0,0
1343366,930,0,0
1343366,923,0,0
1343366,916,0,0
1343367,913,0,0
1343367,905,0,0
1343367,892,0,0
1343368,885,0,0
1343368,872,0,0
1343368,861,0,0
1343368,847,0,0
1343369,843,0,0
1343369,822,0,0
1343369,810,0,0
1343370,797,0,0
1343370,780,0,0
1343370,765,0,0
1343370,749,0,0
1343371,734,0,0
1343371,720,0,0
1343371,707,0,0
1343372,688,0,0
1343372,672,0,0
1343372,659,0,0
1343373,643,0,0
1343373,630,0,0
1343373,615,0,0
1343373,600,0,0
1343374,587,0,0
1343374,574,0,0
1343374,561,0,0
1343375,548,0,0
1343375,538,0,0
1343375,530,0,0
1343376,517,0,0
1343376,506,0,0
1343376,496,0,0
1343376,488,0,0
1343377,479,0,0
1343377,472,0,0
1343377,469,0,0
1343378,459,0,0
1343378,453,0,0
1343378,449,0,0
1343379,445,0,0
1343379,444,0,0
1343379,439,0,0
1343379,437,0,0
1343380,435,0,0
1343380,434,0,0
1343380,433,0,0
1343381,434,0,0
1343381,432,0,0
1343381,434,0,0
1343382,436,0,0
1343382,438,0,0
1343382,443,0,0
1343382,448,0,0
1343383,447,0,0
1343383,452,0,0
1343383,454,0,0
1343384,458,0,0
1343384,462,0,0
1343384,469,0,0
1343384,471,0,0
1343385,479,0,0
1343385,481,0,0
1343385,483,0,0
1343386,489,0,0
1343386,494,0,0
1343386,498,0,0
1343387,501,0,0
1343387,506,0,0
1343387,514,0,0
1343387,514,0,0
1343388,518,0,0
1343388,522,0,0
1343388,526,0,0
1343389,531,0,0
1343389,533,0,0
1343389,536,0,0
1343390,539,0,0
1343390,543,0,0
1343390,545,0,0
1343390,552,0,0
1343391,549,0,0
1343391,551,0,0
1343440,488,0,0
1343441,487,0,0
1343441,483,0,0
1343442,482,0,0
1343442,481,0,0
1343442,481,0,0
1343442,483,0,0
1343443,481,0,0
1343443,484,0,0
1343443,485,0,0
1343444,480,0,0
1343444,481,0,0
1343444,482,0,0
1343445,482,0,0
1343445,481,0,0
1343445,487,0,0
1343445,482,0,0
1343446,481,0,0
1343446,482,0,0
1343446,483,0,0
1343447,488,0,0
1343447,483,0,0
1343447,486,0,0
1343448,486,0,0
1343448,485,0,0
1343448,485,0,0
1343448,489,0,0
1343449,487,0,0
1343449,487,0,0
1343449,488,0,0
1343450,489,0,0
1343450,489,0,0
1343450,494,0,0
1343450,489,0,0
1343451,493,0,0
1343451,495,0,0
1343451,495,0,0
1343452,497,0,0
1343452,492,0,0
1343452,493,0,0
1343453,493,0,0
1343453,495,0,0
1343453,496,0,0
1343453,493,0,0
1343454,498,0,0
1343454,494,0,0
1343454,494,0,0
1343455,493,0,0
1343455,493,0,0
1343455,494,0,0
1343456,496,0,0
1343456,495,0,0
1343456,492,0,0
1343456,493,0,0
1343457,492,0,0
1343457,496,0,0
1343457,496,0,0
1343458,496,0,0
1343458,492,0,0
1343458,492,0,0
1343459,493,0,0
1343459,492,0,0
1343459,494,0,0
1343459,492,0,0
1343460,497,0,0
1343460,492,0,0
1343460,495,0,0
1343461,495,0,0
1343461,497,0,0
1343461,493,0,0
1343462,493,0,0
1343462,496,0,0
1343462,495,0,0
1343462,499,0,0
1343463,499,0,0
1343463,496,0,0
1343463,501,0,0
1343464,500,0,0
1343464,496,0,0
1343464,496,0,0
1343464,501,0,0
1343465,500,0,0
1343465,498,0,0
1343465,497,0,0
1343466,497,0,0
1343466,499,0,0
1343466,498,0,0
1343467,498,0,0
1343467,499,0,0
1343467,500,0,0
1343467,499,0,0
1343468,499,0,0
1343468,499,0,0
1343468,498,0,0
1343469,502,0,0
1343469,498,0,0
1343469,498,0,0
1343469,498,0,0
1343470,498,0,0
1343470,497,0,0
1343618,523,0,0
1343618,522,0,0
1343618,520,0,0
1343619,524,0,0
1343619,521,0,0
1343619,520,0,0
1343620,518,0,0
1343620,518,0,0
1343620,516,0,0
1343621,515,0,0
1343621,514,0,0
1343621,511,0,0
1343621,513,0,0
1343622,510,0,0
1343622,510,0,0
1343622,510,0,0
1343623,505,0,0
1343623,504,0,0
1343623,505,0,0
1343624,503,0,0
1343624,500,0,0
1343624,497,0,0
1343624,497,0,0
1343625,495,0,0
1343625,495,0,0
1343625,498,0,0
1343626,498,0,0
1343626,493,0,0
1343626,492,0,0
1343627,491,0,0
1343627,492,0,0
1343627,490,0,0
1343627,490,0,0
1343628,490,0,0
1343628,492,0,0
1343628,494,0,0
1343629,492,0,0
1343629,491,0,0
1343629,495,0,0
1343630,491,0,0
1343630,491,0,0
1343630,497,0,0
1343630,494,0,0
1343631,496,0,0
1343631,491,0,0
1343631,492,0,0
1343632,493,0,0
1343632,496,0,0
1343632,493,0,0
1343633,498,0,0
1343633,494,0,0
1343633,494,0,0
1343633,499,0,0
1343634,499,0,0
1343634,495,0,0
1343634,495,0,0
1343635,498,0,0
1343635,499,0,0
1343635,495,0,0
1343635,496,0,0
1343636,496,0,0
1343636,495,0,0
1343636,495,0,0
1343637,495,0,0
1343637,494,0,0
1343637,498,0,0
1343638,494,0,0
1343638,495,0,0
1343638,492,0,0
1343638,495,0,0
1343639,490,0,0
1343639,496,0,0
1343639,489,0,0
1343640,489,0,0
1343640,489,0,0
1343640,492,0,0
1343641,491,0,0
1343641,487,0,0
1343641,486,0,0
1343641,486,0,0
1343642,485,0,0
1343642,485,0,0
1343642,484,0,0
1343643,488,0,0
1343643,484,0,0
1343643,487,0,0
1343643,485,0,0
1343644,488,0,0
1343644,488,0,0
1343644,486,0,0
1343645,484,0,0
1343645,484,0,0
1343645,484,0,0
1343646,484,0,0
1343646,485,0,0
1343646,484,0,0
1343646,485,0,0
1343647,485,0,0
1343647,484,0,0
1343647,485,0,0
1343693,480,0,0
1343694,481,0,0
1343694,481,0,0
1343695,485,0,0
1343695,483,0,0
1343695,486,0,0
1343695,484,0,0
1343696,489,0,0
1343696,487,0,0
1343696,485,0,0
1343697,487,0,0
1343697,490,0,0
1343697,487,0,0
1343698,487,0,0
1343698,488,0,0
1343698,489,0,0
1343698,489,0,0
1343699,493,0,0
1343699,490,0,0
1343699,490,0,0
1343700,495,0,0
1343700,493,0,0
1343700,492,0,0
1343701,495,0,0
1343701,498,0,0
1343701,493,0,0
1343701,497,0,0
1343702,495,0,0
1343702,494,0,0
1343702,495,0,0
1343703,495,0,0
1343703,494,0,0
1343703,499,0,0
1343703,495,0,0
1343704,493,0,0
1343704,493,0,0
1343704,495,0,0
1343705,492,0,0
1343705,492,0,0
1343705,490,0,0
1343706,489,0,0
1343706,493,0,0
1343706,487,0,0
1343706,486,0,0
1343707,487,0,0
1343707,487,0,0
1343707,486,0,0
1343708,484,0,0
1343708,487,0,0
1343708,484,0,0
1343709,482,0,0
1343709,487,0,0
1343709,485,0,0
1343709,483,0,0
1343710,481,0,0
1343710,482,0,0
1343710,482,0,0
1343711,482,0,0
1343711,485,0,0
1343711,486,0,0
1343711,481,0,0
1343712,482,0,0
1343712,484,0,0
1343712,487,0,0
1343713,483,0,0
1343713,483,0,0
1343713,484,0,0
1343714,485,0,0
1343714,484,0,0
1343714,485,0,0
1343714,485,0,0
1343715,489,0,0
1343715,491,0,0
1343715,487,0,0
1343716,490,0,0
1343716,487,0,0
1343716,487,0,0
1343716,489,0,0
1343717,493,0,0
1343717,491,0,0
1343717,490,0,0
1343718,489,0,0
1343718,489,0,0
1343718,490,0,0
1343719,493,0,0
1343719,490,0,0
1343719,491,0,0
1343719,490,0,0
1343720,490,0,0
1343720,490,0,0
1343720,490,0,0
1343721,489,0,0
1343721,488,0,0
1343721,489,0,0
1343722,488,0,0
1343722,488,0,0
1343722,487,0,0
1343722,487,0,0
1343723,487,0,0
1343723,485,0,0
1343775,496,0,0
1343775,499,0,0
1343776,499,0,0
1343776,496,0,0
1343776,497,0,0
1343776,495,0,0
1343777,494,0,0
1343777,498,0,0
1343777,495,0,0
1343778,497,0,0
1343778,497,0,0
1343778,500,0,0
1343779,497,0,0
1343779,497,0,0
1343779,497,0,0
1343779,502,0,0
1343780,498,0,0
1343780,500,0,0
1343780,499,0,0
1343781,501,0,0
1343781,499,0,0
1343781,503,0,0
1343782,500,0,0
1343782,505,0,0
1343782,505,0,0
1343782,505,0,0
1343783,503,0,0
1343783,505,0,0
1343783,502,0,0
1343784,503,0,0
1343784,506,0,0
1343784,504,0,0
1343784,503,0,0
1343785,507,0,0
1343785,506,0,0
1343785,503,0,0
1343786,504,0,0
1343786,503,0,0
1343786,507,0,0
1343787,502,0,0
1343787,506,0,0
1343787,502,0,0
1343787,502,0,0
1343788,501,0,0
1343788,500,0,0
1343788,500,0,0
1343789,503,0,0
1343789,498,0,0
1343789,498,0,0
1343789,498,0,0
1343790,500,0,0
1343790,496,0,0
1343790,496,0,0
1343791,495,0,0
1343791,498,0,0
1343791,494,0,0
1343792,498,0,0
1343792,496,0,0
1343792,496,0,0
1343792,493,0,0
1343793,495,0,0
1343793,498,0,0
1343793,495,0,0
1343794,494,0,0
1343794,495,0,0
1343794,499,0,0
1343794,495,0,0
1343795,495,0,0
1343795,496,0,0
1343795,496,0,0
1343796,497,0,0
1343796,497,0,0
1343796,497,0,0
1343797,499,0,0
1343797,501,0,0
1343797,499,0,0
1343797,500,0,0
1343798,499,0,0
1343798,499,0,0
1343798,500,0,0
1343799,500,0,0
1343799,503,0,0
1343799,501,0,0
1343800,502,0,0
1343800,503,0,0
1343800,503,0,0
1343800,504,0,0
1343801,507,0,0
1343801,508,0,0
1343801,509,0,0
1343802,504,0,0
1343802,509,0,0
1343802,505,0,0
1343802,505,0,0
1343803,506,0,0
1343803,511,0,0
1343803,509,0,0
1343804,505,0,0
1343804,509,0,0
1343804,509,0,0
1343900,516,0,0
1343900,516,0,0
1343901,517,0,0
1343901,521,0,0
1343901,519,0,0
1343902,519,0,0
1343902,523,0,0
1343902,523,0,0
1343902,521,0,0
1343903,522,0,0
1343903,525,0,0
1343903,524,0,0
1343904,522,0,0
1343904,523,0,0
1343904,524,0,0
1343905,528,0,0
1343905,527,0,0
1343905,524,0,0
1343905,524,0,0
1343906,524,0,0
1343906,526,0,0
1343906,523,0,0
1343907,527,0,0
1343907,523,0,0
1343907,523,0,0
1343908,526,0,0
1343908,524,0,0
1343908,523,0,0
1343908,524,0,0
1343909,524,0,0
1343909,523,0,0
1343909,524,0,0
1343910,525,0,0
1343910,523,0,0
1343910,524,0,0
1343910,525,0,0
1343911,526,0,0
1343911,526,0,0
1343911,526,0,0
1343912,528,0,0
1343912,527,0,0
1343912,529,0,0
1343913,528,0,0
1343913,530,0,0
1343913,535,0,0
1343913,531,0,0
1343914,532,0,0
1343914,532,0,0
1343914,533,0,0
1343915,533,0,0
1343915,534,0,0
1343915,537,0,0
1343916,535,0,0
1343916,536,0,0
1343916,536,0,0
1343916,537,0,0
1343917,536,0,0
1343917,537,0,0
1343917,538,0,0
1343918,539,0,0
1343918,539,0,0
1343918,537,0,0
1343919,538,0,0
1343919,538,0,0
1343919,537,0,0
1343919,538,0,0
1343920,537,0,0
1343920,535,0,0
1343920,537,0,0
1343921,534,0,0
1343921,536,0,0
1343921,537,0,0
1343921,533,0,0
1343922,531,0,0
1343922,530,0,0
1343922,530,0,0
1343923,530,0,0
1343923,527,0,0
1343923,525,0,0
1343924,525,0,0
1343924,523,0,0
1343924,522,0,0
1343924,521,0,0
1343925,520,0,0
1343925,521,0,0
1343925,519,0,0
1343926,517,0,0
1343926,520,0,0
1343926,516,0,0
1343926,519,0,0
1343927,516,0,0
1343927,515,0,0
1343927,515,0,0
1343928,518,0,0
1343928,515,0,0
1343928,518,0,0
1343929,518,0,0
1343929,518,0,0
1343929,515,0,0
1343929,516,0,0
1343978,494,0,0
1343978,493,0,0
1343979,494,0,0
1343979,498,0,0
1343979,494,0,0
1343980,497,0,0
1343980,499,0,0
1343980,495,0,0
1343981,499,0,0
1343981,496,0,0
1343981,498,0,0
1343982,500,0,0
1343982,499,0,0
1343982,498,0,0
1343982,497,0,0
1343983,503,0,0
1343983,500,0,0
1343983,499,0,0
1343984,499,0,0
1343984,499,0,0
1343984,500,0,0
1343984,500,0,0
1343985,500,0,0
1343985,500,0,0
1343985,501,0,0
1343986,505,0,0
1343986,502,0,0
1343986,500,0,0
1343987,505,0,0
1343987,500,0,0
1343987,500,0,0
1343987,498,0,0
1343988,499,0,0
1343988,498,0,0
1343988,498,0,0
1343989,499,0,0
1343989,500,0,0
1343989,496,0,0
1343990,497,0,0
1343990,494,0,0
1343990,494,0,0
1343990,494,0,0
1343991,493,0,0
1343991,494,0,0
1343991,496,0,0
1343992,492,0,0
1343992,491,0,0
1343992,494,0,0
1343992,496,0,0
1343993,492,0,0
1343993,495,0,0
1343993,492,0,0
1343994,493,0,0
1343994,496,0,0
1343994,493,0,0
1343995,494,0,0
1343995,494,0,0
1343995,495,0,0
1343995,497,0,0
1343996,496,0,0
1343996,499,0,0
1343996,497,0,0
1343997,500,0,0
1343997,497,0,0
1343997,498,0,0
1343998,501,0,0
1343998,498,0,0
1343998,500,0,0
1343998,500,0,0
1343999,501,0,0
1343999,501,0,0
1343999,502,0,0
1344000,505,0,0
1344000,502,0,0
1344000,505,0,0
1344001,503,0,0
1344001,507,0,0
1344001,506,0,0
1344001,503,0,0
1344002,503,0,0
1344002,502,0,0
1344002,503,0,0
1344003,503,0,0
1344003,503,0,0
1344003,503,0,0
1344004,501,0,0
1344004,500,0,0
1344004,501,0,0
1344004,500,0,0
1344005,500,0,0
1344005,499,0,0
1344005,498,0,0
1344006,499,0,0
1344006,499,0,0
1344006,495,0,0
1344007,494,0,0
1344007,498,0,0
1344007,493,0,0
1344007,497,0,0
1344008,491,0,0
1344100,486,0,0
1344101,486,0,0
1344101,483,0,0
1344101,483,0,0
1344102,484,0,0
1344102,484,0,0
1344102,489,0,0
1344102,484,0,0
1344103,485,0,0
1344103,484,0,0
1344103,487,0,0
1344104,489,0,0
1344104,485,0,0
1344104,485,0,0
1344104,484,0,0
1344105,484,0,0
1344105,483,0,0
1344105,487,0,0
1344106,483,0,0
1344106,481,0,0
1344106,482,0,0
1344107,484,0,0
1344107,479,0,0
1344107,479,0,0
1344107,479,0,0
1344108,478,0,0
1344108,477,0,0
1344108,479,0,0
1344109,478,0,0
1344109,477,0,0
1344109,478,0,0
1344110,478,0,0
1344110,477,0,0
1344110,479,0,0
1344110,477,0,0
1344111,477,0,0
1344111,477,0,0
1344111,478,0,0
1344112,478,0,0
1344112,478,0,0
1344112,479,0,0
1344112,480,0,0
1344113,481,0,0
1344113,481,0,0
1344113,481,0,0
1344114,481,0,0
1344114,482,0,0
1344114,482,0,0
1344115,482,0,0
1344115,483,0,0
1344115,489,0,0
1344115,485,0,0
1344116,490,0,0
1344116,486,0,0
1344116,488,0,0
1344117,487,0,0
1344117,487,0,0
1344117,492,0,0
1344118,489,0,0
1344118,488,0,0
1344118,488,0,0
1344118,489,0,0
1344119,489,0,0
1344119,488,0,0
1344119,488,0,0
1344120,488,0,0
1344120,488,0,0
1344120,488,0,0
1344120,489,0,0
1344121,489,0,0
1344121,487,0,0
1344121,487,0,0
1344122,487,0,0
1344122,486,0,0
1344122,485,0,0
1344123,485,0,0
1344123,483,0,0
1344123,487,0,0
1344123,482,0,0
1344124,483,0,0
1344124,484,0,0
1344124,485,0,0
1344125,479,0,0
1344125,480,0,0
1344125,478,0,0
1344125,478,0,0
1344126,482,0,0
1344126,478,0,0
1344126,483,0,0
1344127,478,0,0
1344127,478,0,0
1344127,484,0,0
1344128,482,0,0
1344128,479,0,0
1344128,478,0,0
1344128,485,0,0
1344129,480,0,0
1344129,482,0,0
1344129,486,0,0
1344130,482,0,0
1344176,498,0,0
1344176,494,0,0
1344176,495,0,0
1344177,495,0,0
1344177,496,0,0
1344177,493,0,0
1344178,496,0,0
1344178,497,0,0
1344178,493,0,0
1344178,495,0,0
1344179,496,0,0
1344179,493,0,0
1344179,495,0,0
1344180,499,0,0
1344180,496,0,0
1344180,500,0,0
1344181,501,0,0
1344181,497,0,0
1344181,498,0,0
1344181,500,0,0
1344182,500,0,0
1344182,502,0,0
1344182,504,0,0
1344183,503,0,0
1344183,502,0,0
1344183,503,0,0
1344183,507,0,0
1344184,505,0,0
1344184,506,0,0
1344184,504,0,0
1344185,508,0,0
1344185,504,0,0
1344185,507,0,0
1344186,505,0,0
1344186,505,0,0
1344186,506,0,0
1344186,505,0,0
1344187,506,0,0
1344187,505,0,0
1344187,504,0,0
1344188,505,0,0
1344188,503,0,0
1344188,508,0,0
1344189,504,0,0
1344189,503,0,0
1344189,502,0,0
1344189,502,0,0
1344190,501,0,0
1344190,501,0,0
1344190,501,0,0
1344191,503,0,0
1344191,499,0,0
1344191,499,0,0
1344192,501,0,0
1344192,498,0,0
1344192,499,0,0
1344192,499,0,0
1344193,498,0,0
1344193,498,0,0
1344193,498,0,0
1344194,499,0,0
1344194,499,0,0
1344194,499,0,0
1344194,499,0,0
1344195,501,0,0
1344195,504,0,0
1344195,507,0,0
1344196,500,0,0
1344196,505,0,0
1344196,502,0,0
1344197,505,0,0
1344197,503,0,0
1344197,503,0,0
1344197,507,0,0
1344198,504,0,0
1344198,507,0,0
1344198,507,0,0
1344199,507,0,0
1344199,508,0,0
1344199,509,0,0
1344200,510,0,0
1344200,510,0,0
1344200,513,0,0
1344200,513,0,0
1344201,516,0,0
1344201,515,0,0
1344201,516,0,0
1344202,518,0,0
1344202,517,0,0
1344202,517,0,0
1344203,517,0,0
1344203,519,0,0
1344203,521,0,0
1344203,517,0,0
1344204,517,0,0
1344204,516,0,0
1344204,516,0,0
1344205,516,0,0
1344205,517,0,0
1344205,518,0,0
1344257,553,0,0
1344257,552,0,0
1344258,549,0,0
1344258,550,0,0
1344258,552,0,0
1344258,553,0,0
1344259,550,0,0
1344259,552,0,0
1344259,550,0,0
1344260,549,0,0
1344260,550,0,0
1344260,551,0,0
1344260,549,0,0
1344261,551,0,0
1344261,552,0,0
1344261,553,0,0
1344262,555,0,0
1344262,555,0,0
1344262,554,0,0
1344263,556,0,0
1344263,556,0,0
1344263,557,0,0
1344263,559,0,0
1344264,561,0,0
1344264,558,0,0
1344264,564,0,0
1344265,561,0,0
1344265,561,0,0
1344265,562,0,0
1344266,564,0,0
1344266,564,0,0
1344266,565,0,0
1344266,569,0,0
1344267,567,0,0
1344267,569,0,0
1344267,569,0,0
1344268,570,0,0
1344268,569,0,0
1344268,570,0,0
1344268,569,0,0
1344269,573,0,0
1344269,571,0,0
1344269,571,0,0
1344270,571,0,0
1344270,570,0,0
1344270,574,0,0
1344271,572,0,0
1344271,569,0,0
1344271,568,0,0
1344271,568,0,0
1344272,569,0,0
1344272,566,0,0
1344272,565,0,0
1344273,566,0,0
1344273,563,0,0
1344273,562,0,0
1344274,562,0,0
1344274,561,0,0
1344274,560,0,0
1344274,560,0,0
1344275,558,0,0
1344275,558,0,0
1344275,557,0,0
1344276,557,0,0
1344276,557,0,0
1344276,556,0,0
1344276,556,0,0
1344277,558,0,0
1344277,556,0,0
1344277,555,0,0
1344278,556,0,0
1344278,559,0,0
1344278,557,0,0
1344279,557,0,0
1344279,556,0,0
1344279,557,0,0
1344279,557,0,0
1344280,557,0,0
1344280,559,0,0
1344280,556,0,0
1344281,557,0,0
1344281,561,0,0
1344281,557,0,0
1344282,557,0,0
1344282,561,0,0
1344282,557,0,0
1344282,557,0,0
1344283,557,0,0
1344283,562,0,0
1344283,560,0,0
1344284,557,0,0
1344284,559,0,0
1344284,558,0,0
1344285,555,0,0
1344285,555,0,0
1344285,554,0,0
1344285,554,0,0
1344286,554,0,0
1344286,557,0,0
1344286,552,0,0
1344381,496,0,0
1344382,496,0,0
1344382,503,0,0
1344382,499,0,0
1344383,500,0,0
1344383,500,0,0
1344383,500,0,0
1344384,503,0,0
1344384,501,0,0
1344384,502,0,0
1344385,501,0,0
1344385,503,0,0
1344385,501,0,0
1344385,502,0,0
1344386,503,0,0
1344386,505,0,0
1344386,503,0,0
1344387,501,0,0
1344387,500,0,0
1344387,504,0,0
1344387,500,0,0
1344388,501,0,0
1344388,500,0,0
1344388,499,0,0
1344389,498,0,0
1344389,497,0,0
1344389,500,0,0
1344390,496,0,0
1344390,494,0,0
1344390,494,0,0
1344390,496,0,0
1344391,494,0,0
1344391,491,0,0
1344391,494,0,0
1344392,489,0,0
1344392,488,0,0
1344392,488,0,0
1344393,491,0,0
1344393,487,0,0
1344393,489,0,0
1344393,491,0,0
1344394,487,0,0
1344394,490,0,0
1344394,487,0,0
1344395,487,0,0
1344395,488,0,0
1344395,491,0,0
1344396,488,0,0
1344396,491,0,0
1344396,491,0,0
1344396,496,0,0
1344397,491,0,0
1344397,491,0,0
1344397,491,0,0
1344398,491,0,0
1344398,496,0,0
1344398,492,0,0
1344399,493,0,0
1344399,494,0,0
1344399,500,0,0
1344399,494,0,0
1344400,499,0,0
1344400,496,0,0
1344400,501,0,0
1344401,497,0,0
1344401,497,0,0
1344401,498,0,0
1344402,501,0,0
1344402,497,0,0
1344402,498,0,0
1344402,498,0,0
1344403,501,0,0
1344403,503,0,0
1344403,500,0,0
1344404,499,0,0
1344404,499,0,0
1344404,499,0,0
1344404,505,0,0
1344405,501,0,0
1344405,501,0,0
1344405,501,0,0
1344406,497,0,0
1344406,497,0,0
1344406,498,0,0
1344407,500,0,0
1344407,495,0,0
1344407,498,0,0
1344407,497,0,0
1344408,494,0,0
1344408,492,0,0
1344408,493,0,0
1344409,493,0,0
1344409,491,0,0
1344409,492,0,0
1344410,495,0,0
1344410,491,0,0
1344410,496,0,0
1344410,491,0,0
1344411,490,0,0
1344411,495,0,0
1344460,501,0,0
1344460,501,0,0
1344461,505,0,0
1344461,500,0,0
1344461,504,0,0
1344461,506,0,0
1344462,503,0,0
1344462,503,0,0
1344462,504,0,0
1344463,504,0,0
1344463,504,0,0
1344463,509,0,0
1344464,506,0,0
1344464,510,0,0
1344464,510,0,0
1344464,507,0,0
1344465,509,0,0
1344465,509,0,0
1344465,509,0,0
1344466,512,0,0
1344466,513,0,0
1344466,510,0,0
1344466,510,0,0
1344467,511,0,0
1344467,515,0,0
1344467,511,0,0
1344468,511,0,0
1344468,511,0,0
1344468,513,0,0
1344469,514,0,0
1344469,515,0,0
1344469,513,0,0
1344469,511,0,0
1344470,513,0,0
1344470,511,0,0
1344470,515,0,0
1344471,510,0,0
1344471,511,0,0
1344471,515,0,0
1344472,509,0,0
1344472,513,0,0
1344472,509,0,0
1344472,509,0,0
1344473,507,0,0
1344473,509,0,0
1344473,506,0,0
1344474,508,0,0
1344474,505,0,0
1344474,503,0,0
1344474,503,0,0
1344475,504,0,0
1344475,503,0,0
1344475,501,0,0
1344476,502,0,0
1344476,501,0,0
1344476,502,0,0
1344477,501,0,0
1344477,501,0,0
1344477,502,0,0
1344477,502,0,0
1344478,502,0,0
1344478,502,0,0
1344478,502,0,0
1344479,505,0,0
1344479,507,0,0
1344479,503,0,0
1344480,504,0,0
1344480,506,0,0
1344480,506,0,0
1344480,510,0,0
1344481,508,0,0
1344481,507,0,0
1344481,509,0,0
1344482,509,0,0
1344482,511,0,0
1344482,510,0,0
1344482,510,0,0
1344483,517,0,0
1344483,512,0,0
1344483,517,0,0
1344484,513,0,0
1344484,515,0,0
1344484,517,0,0
1344485,515,0,0
1344485,515,0,0
1344485,514,0,0
1344485,514,0,0
1344486,514,0,0
1344486,515,0,0
1344486,518,0,0
1344487,514,0,0
1344487,518,0,0
1344487,514,0,0
1344488,515,0,0
1344488,513,0,0
1344488,511,0,0
1344488,510,0,0
1344489,509,0,0
1344489,510,0,0
1344489,508,0,0
1344580,513,0,0
1344581,515,0,0
1344581,515,0,0
1344581,522,0,0
1344582,523,0,0
1344582,519,0,0
1344582,520,0,0
1344583,523,0,0
1344583,523,0,0
1344583,528,0,0
1344583,526,0,0
1344584,528,0,0
1344584,529,0,0
1344584,528,0,0
1344585,529,0,0
1344585,529,0,0
1344585,530,0,0
1344585,531,0,0
1344586,534,0,0
1344586,532,0,0
1344586,535,0,0
1344587,532,0,0
1344587,532,0,0
1344587,532,0,0
1344588,531,0,0
1344588,531,0,0
1344588,530,0,0
1344588,531,0,0
1344589,529,0,0
1344589,528,0,0
1344589,527,0,0
1344590,526,0,0
1344590,526,0,0
1344590,525,0,0
1344591,527,0,0
1344591,524,0,0
1344591,523,0,0
1344591,523,0,0
1344592,523,0,0
1344592,526,0,0
1344592,524,0,0
1344593,521,0,0
1344593,524,0,0
1344593,519,0,0
1344593,521,0,0
1344594,520,0,0
1344594,518,0,0
1344594,520,0,0
1344595,518,0,0
1344595,522,0,0
1344595,522,0,0
1344596,519,0,0
1344596,520,0,0
1344596,520,0,0
1344596,521,0,0
1344597,520,0,0
1344597,521,0,0
1344597,523,0,0
1344598,521,0,0
1344598,521,0,0
1344598,524,0,0
1344599,526,0,0
1344599,525,0,0
1344599,527,0,0
1344599,528,0,0
1344600,524,0,0
1344600,525,0,0
1344600,527,0,0
1344601,529,0,0
1344601,530,0,0
1344601,526,0,0
1344601,527,0,0
1344602,528,0,0
1344602,527,0,0
1344602,528,0,0
1344603,528,0,0
1344603,527,0,0
1344603,527,0,0
1344604,530,0,0
1344604,527,0,0
1344604,526,0,0
1344604,525,0,0
1344605,525,0,0
1344605,525,0,0
1344605,524,0,0
1344606,523,0,0
1344606,524,0,0
1344606,525,0,0
1344606,521,0,0
1344607,522,0,0
1344607,522,0,0
1344607,522,0,0
1344608,520,0,0
1344608,520,0,0
1344608,521,0,0
1344609,521,0,0
1344609,520,0,0
1344609,522,0,0
1344609,521,0,0
1344610,520,0,0
1344656,500,0,0
1344657,495,0,0
1344657,499,0,0
1344657,493,0,0
1344658,493,0,0
1344658,494,0,0
1344658,491,0,0
1344659,495,0,0
1344659,491,0,0
1344659,490,0,0
1344660,494,0,0
1344660,492,0,0
1344660,490,0,0
1344660,491,0,0
1344661,489,0,0
1344661,490,0,0
1344661,490,0,0
1344662,497,0,0
1344662,494,0,0
1344662,492,0,0
1344663,495,0,0
1344663,497,0,0
1344663,493,0,0
1344663,493,0,0
1344664,500,0,0
1344664,495,0,0
1344664,496,0,0
1344665,499,0,0
1344665,498,0,0
1344665,499,0,0
1344665,502,0,0
1344666,499,0,0
1344666,502,0,0
1344666,500,0,0
1344667,503,0,0
1344667,501,0,0
1344667,506,0,0
1344668,502,0,0
1344668,502,0,0
1344668,502,0,0
1344668,504,0,0
1344669,504,0,0
1344669,504,0,0
1344669,506,0,0
1344670,503,0,0
1344670,503,0,0
1344670,504,0,0
1344671,504,0,0
1344671,506,0,0
1344671,502,0,0
1344671,504,0,0
1344672,500,0,0
1344672,500,0,0
1344672,499,0,0
1344673,498,0,0
1344673,498,0,0
1344673,497,0,0
1344673,496,0,0
1344674,495,0,0
1344674,495,0,0
1344674,498,0,0
1344675,493,0,0
1344675,493,0,0
1344675,493,0,0
1344676,492,0,0
1344676,491,0,0
1344676,491,0,0
1344676,491,0,0
1344677,491,0,0
1344677,492,0,0
1344677,490,0,0
1344678,492,0,0
1344678,491,0,0
1344678,492,0,0
1344679,496,0,0
1344679,491,0,0
1344679,490,0,0
1344679,493,0,0
1344680,491,0,0
1344680,497,0,0
1344680,492,0,0
1344681,494,0,0
1344681,492,0,0
1344681,493,0,0
1344682,493,0,0
1344682,494,0,0
1344682,497,0,0
1344682,499,0,0
1344683,495,0,0
1344683,496,0,0
1344683,501,0,0
1344684,498,0,0
1344684,501,0,0
1344684,500,0,0
1344684,498,0,0
1344685,498,0,0
1344685,502,0,0
1344685,499,0,0
1344686,499,0,0
1344686,501,0,0
1344740,446,0,0
1344740,442,0,0
1344741,437,0,0
1344741,430,0,0
1344741,431,0,0
1344742,425,0,0
1344742,423,0,0
1344742,427,0,0
1344743,422,0,0
1344743,423,0,0
1344743,423,0,0
1344743,425,0,0
1344744,427,0,0
1344744,431,0,0
1344744,433,0,0
1344745,435,0,0
1344745,438,0,0
1344745,443,0,0
1344745,447,0,0
1344746,453,0,0
1344746,457,0,0
1344746,461,0,0
1344747,466,0,0
1344747,472,0,0
1344747,482,0,0
1344748,482,0,0
1344748,488,0,0
1344748,493,0,0
1344748,503,0,0
1344749,507,0,0
1344749,511,0,0
1344749,516,0,0
1344750,523,0,0
1344750,531,0,0
1344750,536,0,0
1344751,536,0,0
1344751,543,0,0
1344751,546,0,0
1344751,549,0,0
1344752,552,0,0
1344752,553,0,0
1344752,557,0,0
1344753,562,0,0
1344753,563,0,0
1344753,563,0,0
1344754,564,0,0
1344754,564,0,0
1344754,563,0,0
1344754,567,0,0
1344755,563,0,0
1344755,564,0,0
1344755,561,0,0
1344756,561,0,0
1344756,559,0,0
1344756,556,0,0
1344756,554,0,0
1344757,552,0,0
1344757,548,0,0
1344757,549,0,0
1344758,543,0,0
1344758,541,0,0
1344758,542,0,0
1344759,540,0,0
1344759,535,0,0
1344759,530,0,0
1344759,526,0,0
1344760,525,0,0
1344760,522,0,0
1344760,521,0,0
1344761,519,0,0
1344761,514,0,0
1344761,512,0,0
1344762,512,0,0
1344762,506,0,0
1344762,504,0,0
1344762,503,0,0
1344763,500,0,0
1344763,499,0,0
1344763,497,0,0
1344764,496,0,0
1344764,494,0,0
1344764,497,0,0
1344765,492,0,0
1344765,495,0,0
1344765,493,0,0
1344765,489,0,0
1344766,487,0,0
1344766,491,0,0
1344766,487,0,0
1344767,487,0,0
1344767,488,0,0
1344767,484,0,0
1344767,484,0,0
1344768,484,0,0
1344768,481,0,0
1344768,481,0,0
1344769,484,0,0
1344769,480,0,0
1344769,480,0,0
1344770,479,0,0
1344867,508,0,0
1344868,505,0,0
1344868,506,0,0
1344868,506,0,0
1344869,507,0,0
1344869,511,0,0
1344869,511,0,0
1344870,510,0,0
1344870,507,0,0
1344870,507,0,0
1344870,507,0,0
1344871,507,0,0
1344871,507,0,0
1344871,506,0,0
1344872,505,0,0
1344872,504,0,0
1344872,506,0,0
1344873,509,0,0
1344873,503,0,0
1344873,504,0,0
1344873,501,0,0
1344874,504,0,0
1344874,500,0,0
1344874,501,0,0
1344875,500,0,0
1344875,500,0,0
1344875,500,0,0
1344876,499,0,0
1344876,498,0,0
1344876,499,0,0
1344876,500,0,0
1344877,504,0,0
1344877,501,0,0
1344877,499,0,0
1344878,500,0,0
1344878,500,0,0
1344878,502,0,0
1344879,502,0,0
1344879,505,0,0
1344879,502,0,0
1344879,507,0,0
1344880,507,0,0
1344880,504,0,0
1344880,506,0,0
1344881,505,0,0
1344881,506,0,0
1344881,506,0,0
1344881,507,0,0
1344882,507,0,0
1344882,510,0,0
1344882,512,0,0
1344883,511,0,0
1344883,514,0,0
1344883,514,0,0
1344884,512,0,0
1344884,513,0,0
1344884,514,0,0
1344884,513,0,0
1344885,513,0,0
1344885,519,0,0
1344885,517,0,0
1344886,514,0,0
1344886,515,0,0
1344886,516,0,0
1344887,515,0,0
1344887,514,0,0
1344887,515,0,0
1344887,515,0,0
1344888,519,0,0
1344888,518,0,0
1344888,513,0,0
1344889,512,0,0
1344889,513,0,0
1344889,516,0,0
1344890,512,0,0
1344890,510,0,0
1344890,509,0,0
1344890,509,0,0
1344891,509,0,0
1344891,509,0,0
1344891,509,0,0
1344892,509,0,0
1344892,508,0,0
1344892,514,0,0
1344892,508,0,0
1344893,509,0,0
1344893,508,0,0
1344893,512,0,0
1344894,508,0,0
1344894,507,0,0
1344894,513,0,0
1344895,509,0,0
1344895,509,0,0
1344895,515,0,0
1344895,510,0,0
1344896,511,0,0
1344896,515,0,0
1344896,514,0,0
1344897,515,0,0
1344897,516,0,0
1344945,556,0,0
1344946,556,0,0
1344946,557,0,0
1344947,560,0,0
1344947,557,0,0
1344947,559,0,0
1344947,559,0,0
1344948,561,0,0
1344948,562,0,0
1344948,564,0,0
1344949,562,0,0
1344949,562,0,0
1344949,563,0,0
1344949,565,0,0
1344950,565,0,0
1344950,565,0,0
1344950,566,0,0
1344951,566,0,0
1344951,567,0,0
1344951,567,0,0
1344952,571,0,0
1344952,567,0,0
1344952,570,0,0
1344952,567,0,0
1344953,567,0,0
1344953,568,0,0
1344953,568,0,0
1344954,566,0,0
1344954,565,0,0
1344954,565,0,0
1344955,571,0,0
1344955,564,0,0
1344955,563,0,0
1344955,560,0,0
1344956,560,0,0
1344956,559,0,0
1344956,558,0,0
1344957,556,0,0
1344957,557,0,0
1344957,559,0,0
1344958,554,0,0
1344958,553,0,0
1344958,556,0,0
1344958,551,0,0
1344959,552,0,0
1344959,551,0,0
1344959,549,0,0
1344960,548,0,0
1344960,549,0,0
1344960,545,0,0
1344960,546,0,0
1344961,545,0,0
1344961,545,0,0
1344961,544,0,0
1344962,549,0,0
1344962,545,0,0
1344962,544,0,0
1344963,548,0,0
1344963,545,0,0
1344963,544,0,0
1344963,546,0,0
1344964,546,0,0
1344964,546,0,0
1344964,544,0,0
1344965,545,0,0
1344965,545,0,0
1344965,546,0,0
1344966,547,0,0
1344966,547,0,0
1344966,546,0,0
1344966,545,0,0
1344967,546,0,0
1344967,549,0,0
1344967,545,0,0
1344968,549,0,0
1344968,546,0,0
1344968,548,0,0
1344968,545,0,0
1344969,547,0,0
1344969,545,0,0
1344969,547,0,0
1344970,546,0,0
1344970,543,0,0
1344970,542,0,0
1344971,542,0,0
1344971,540,0,0
1344971,539,0,0
1344971,538,0,0
1344972,538,0,0
1344972,537,0,0
1344972,538,0,0
1344973,535,0,0
1344973,532,0,0
1344973,531,0,0
1344974,530,0,0
1344974,528,0,0
1344974,529,0,0
1344974,527,0,0
1344975,525,0,0
1344975,526,0,0
1345066,489,0,0
1345066,487,0,0
1345067,491,0,0
1345067,488,0,0
1345067,488,0,0
1345068,489,0,0
1345068,492,0,0
1345068,490,0,0
1345069,492,0,0
1345069,490,0,0
1345069,490,0,0
1345070,492,0,0
1345070,491,0,0
1345070,491,0,0
1345070,492,0,0
1345071,492,0,0
1345071,493,0,0
1345071,492,0,0
1345072,493,0,0
1345072,491,0,0
1345072,493,0,0
1345072,495,0,0
1345073,491,0,0
1345073,490,0,0
1345073,493,0,0
1345074,489,0,0
1345074,491,0,0
1345074,488,0,0
1345075,490,0,0
1345075,488,0,0
1345075,489,0,0
1345075,487,0,0
1345076,488,0,0
1345076,487,0,0
1345076,488,0,0
1345077,487,0,0
1345077,487,0,0
1345077,487,0,0
1345078,490,0,0
1345078,487,0,0
1345078,487,0,0
1345078,488,0,0
1345079,488,0,0
1345079,488,0,0
1345079,490,0,0
1345080,488,0,0
1345080,489,0,0
1345080,488,0,0
1345080,492,0,0
1345081,489,0,0
1345081,489,0,0
1345081,489,0,0
1345082,491,0,0
1345082,491,0,0
1345082,492,0,0
1345083,491,0,0
1345083,491,0,0
1345083,493,0,0
1345083,497,0,0
1345084,496,0,0
1345084,494,0,0
1345084,494,0,0
1345085,495,0,0
1345085,495,0,0
1345085,495,0,0
1345086,495,0,0
1345086,497,0,0
1345086,496,0,0
1345086,496,0,0
1345087,495,0,0
1345087,495,0,0
1345087,500,0,0
1345088,498,0,0
1345088,496,0,0
1345088,496,0,0
1345088,495,0,0
1345089,497,0,0
1345089,497,0,0
1345089,497,0,0
1345090,493,0,0
1345090,493,0,0
1345090,491,0,0
1345091,492,0,0
1345091,493,0,0
1345091,491,0,0
1345091,491,0,0
1345092,490,0,0
1345092,488,0,0
1345092,488,0,0
1345093,489,0,0
1345093,489,0,0
1345093,489,0,0
1345094,487,0,0
1345094,488,0,0
1345094,488,0,0
1345094,488,0,0
1345095,488,0,0
1345095,492,0,0
1345095,491,0,0
1345096,491,0,0
1345182,503,0,0
1345183,501,0,0
1345183,508,0,0
1345183,503,0,0
1345183,504,0,0
1345184,504,0,0
1345184,505,0,0
1345184,506,0,0
1345185,509,0,0
1345185,507,0,0
1345185,507,0,0
1345186,510,0,0
1345186,508,0,0
1345186,507,0,0
1345186,508,0,0
1345187,512,0,0
1345187,508,0,0
1345187,510,0,0
1345188,511,0,0
1345188,510,0,0
1345188,505,0,0
1345189,507,0,0
1345189,505,0,0
1345189,506,0,0
1345189,502,0,0
1345190,501,0,0
1345190,501,0,0
1345190,505,0,0
1345191,499,0,0
1345191,498,0,0
1345191,497,0,0
1345191,501,0,0
1345192,495,0,0
1345192,494,0,0
1345192,494,0,0
1345193,492,0,0
1345193,497,0,0
1345193,492,0,0
1345194,492,0,0
1345194,491,0,0
1345194,491,0,0
1345194,490,0,0
1345195,492,0,0
1345195,492,0,0
1345195,492,0,0
1345196,493,0,0
1345196,494,0,0
1345196,493,0,0
1345197,495,0,0
1345197,496,0,0
1345197,494,0,0
1345197,497,0,0
1345198,496,0,0
1345198,496,0,0
1345198,501,0,0
1345199,497,0,0
1345199,499,0,0
1345199,499,0,0
1345200,500,0,0
1345200,501,0,0
1345200,501,0,0
1345200,502,0,0
1345201,502,0,0
1345201,503,0,0
1345201,505,0,0
1345202,504,0,0
1345202,506,0,0
1345202,505,0,0
1345202,508,0,0
1345203,505,0,0
1345203,504,0,0
1345203,505,0,0
1345204,504,0,0
1345204,508,0,0
1345204,502,0,0
1345205,502,0,0
1345205,501,0,0
1345205,500,0,0
1345205,500,0,0
1345206,502,0,0
1345206,499,0,0
1345206,498,0,0
1345207,497,0,0
1345207,499,0,0
1345207,494,0,0
1345208,498,0,0
1345208,494,0,0
1345208,493,0,0
1345208,496,0,0
1345209,493,0,0
1345209,496,0,0
1345209,492,0,0
1345210,492,0,0
1345210,492,0,0
1345210,491,0,0
1345210,490,0,0
1345211,492,0,0
1345211,492,0,0
1345211,497,0,0
1345212,492,0,0
1345263,500,0,0
1345263,502,0,0
1345264,506,0,0
1345264,502,0,0
1345264,507,0,0
1345264,502,0,0
1345265,503,0,0
1345265,504,0,0
1345265,504,0,0
1345266,504,0,0
1345266,506,0,0
1345266,506,0,0
1345267,507,0,0
1345267,511,0,0
1345267,512,0,0
1345267,509,0,0
1345268,509,0,0
1345268,510,0,0
1345268,509,0,0
1345269,509,0,0
1345269,512,0,0
1345269,509,0,0
1345269,514,0,0
1345270,513,0,0
1345270,509,0,0
1345270,511,0,0
1345271,508,0,0
1345271,507,0,0
1345271,507,0,0
1345272,505,0,0
1345272,508,0,0
1345272,505,0,0
1345272,503,0,0
1345273,505,0,0
1345273,501,0,0
1345273,500,0,0
1345274,499,0,0
1345274,498,0,0
1345274,502,0,0
1345275,498,0,0
1345275,495,0,0
1345275,495,0,0
1345275,496,0,0
1345276,498,0,0
1345276,496,0,0
1345276,494,0,0
1345277,491,0,0
1345277,492,0,0
1345277,492,0,0
1345277,492,0,0
1345278,492,0,0
1345278,493,0,0
1345278,493,0,0
1345279,493,0,0
1345279,493,0,0
1345279,497,0,0
1345280,494,0,0
1345280,495,0,0
1345280,496,0,0
1345280,496,0,0
1345281,498,0,0
1345281,497,0,0
1345281,498,0,0
1345282,499,0,0
1345282,501,0,0
1345282,501,0,0
1345283,502,0,0
1345283,503,0,0
1345283,504,0,0
1345283,506,0,0
1345284,507,0,0
1345284,508,0,0
1345284,512,0,0
1345285,513,0,0
1345285,509,0,0
1345285,511,0,0
1345285,511,0,0
1345286,516,0,0
1345286,512,0,0
1345286,513,0,0
1345287,516,0,0
1345287,514,0,0
1345287,516,0,0
1345288,515,0,0
1345288,518,0,0
1345288,518,0,0
1345288,518,0,0
1345289,516,0,0
1345289,517,0,0
1345289,516,0,0
1345290,516,0,0
1345290,516,0,0
1345290,521,0,0
1345291,516,0,0
1345291,515,0,0
1345291,518,0,0
1345291,516,0,0
1345292,516,0,0
1345292,515,0,0
1345292,520,0,0
1345387,508,0,0
1345387,504,0,0
1345387,507,0,0
1345388,505,0,0
1345388,504,0,0
1345388,502,0,0
1345389,502,0,0
1345389,506,0,0
1345389,502,0,0
1345390,501,0,0
1345390,499,0,0
1345390,500,0,0
1345390,500,0,0
1345391,499,0,0
1345391,497,0,0
1345391,492,0,0
1345392,498,0,0
1345392,495,0,0
1345392,495,0,0
1345393,499,0,0
1345393,494,0,0
1345393,493,0,0
1345393,494,0,0
1345394,493,0,0
1345394,494,0,0
1345394,496,0,0
1345395,497,0,0
1345395,493,0,0
1345395,494,0,0
1345396,492,0,0
1345396,492,0,0
1345396,496,0,0
1345396,495,0,0
1345397,493,0,0
1345397,491,0,0
1345397,492,0,0
1345398,492,0,0
1345398,492,0,0
1345398,490,0,0
1345399,495,0,0
1345399,491,0,0
1345399,490,0,0
1345399,492,0,0
1345400,489,0,0
1345400,488,0,0
1345400,487,0,0
1345401,487,0,0
1345401,487,0,0
1345401,488,0,0
1345401,487,0,0
1345402,490,0,0
1345402,484,0,0
1345402,485,0,0
1345403,483,0,0
1345403,483,0,0
1345403,485,0,0
1345404,481,0,0
1345404,480,0,0
1345404,485,0,0
1345404,480,0,0
1345405,478,0,0
1345405,478,0,0
1345405,480,0,0
1345406,477,0,0
1345406,476,0,0
1345406,476,0,0
1345407,480,0,0
1345407,475,0,0
1345407,476,0,0
1345407,476,0,0
1345408,478,0,0
1345408,480,0,0
1345408,481,0,0
1345409,477,0,0
1345409,479,0,0
1345409,481,0,0
1345409,481,0,0
1345410,484,0,0
1345410,486,0,0
1345410,490,0,0
1345411,493,0,0
1345411,496,0,0
1345411,499,0,0
1345412,503,0,0
1345412,510,0,0
1345412,511,0,0
1345412,516,0,0
1345413,520,0,0
1345413,525,0,0
1345413,529,0,0
1345414,534,0,0
1345414,540,0,0
1345414,547,0,0
1345414,550,0,0
1345415,556,0,0
1345415,563,0,0
1345415,574,0,0
1345416,575,0,0
1345416,581,0,0
1345416,590,0,0
1345463,555,0,0
1345464,554,0,0
1345464,554,0,0
1345464,553,0,0
1345465,555,0,0
1345465,550,0,0
1345465,549,0,0
1345466,550,0,0
1345466,546,0,0
1345466,545,0,0
1345466,543,0,0
1345467,543,0,0
1345467,539,0,0
1345467,537,0,0
1345468,539,0,0
1345468,534,0,0
1345468,531,0,0
1345469,531,0,0
1345469,525,0,0
1345469,522,0,0
1345469,522,0,0
1345470,517,0,0
1345470,516,0,0
1345470,513,0,0
1345471,510,0,0
1345471,508,0,0
1345471,505,0,0
1345471,505,0,0
1345472,503,0,0
1345472,499,0,0
1345472,495,0,0
1345473,492,0,0
1345473,491,0,0
1345473,487,0,0
1345474,489,0,0
1345474,483,0,0
1345474,483,0,0
1345474,480,0,0
1345475,478,0,0
1345475,481,0,0
1345475,479,0,0
1345476,475,0,0
1345476,475,0,0
1345476,473,0,0
1345476,472,0,0
1345477,471,0,0
1345477,471,0,0
1345477,475,0,0
1345478,470,0,0
1345478,469,0,0
1345478,470,0,0
1345479,471,0,0
1345479,469,0,0
1345479,470,0,0
1345479,469,0,0
1345480,469,0,0
1345480,471,0,0
1345480,469,0,0
1345481,475,0,0
1345481,471,0,0
1345481,471,0,0
1345482,473,0,0
1345482,474,0,0
1345482,474,0,0
1345482,477,0,0
1345483,475,0,0
1345483,477,0,0
1345483,477,0,0
1345484,477,0,0
1345484,480,0,0
1345484,480,0,0
1345484,485,0,0
1345485,485,0,0
1345485,482,0,0
1345485,486,0,0
1345486,484,0,0
1345486,483,0,0
1345486,486,0,0
1345487,488,0,0
1345487,484,0,0
1345487,484,0,0
1345487,483,0,0
1345488,484,0,0
1345488,484,0,0
1345488,485,0,0
1345489,485,0,0
1345489,485,0,0
1345489,482,0,0
1345490,482,0,0
1345490,486,0,0
1345490,481,0,0
1345490,484,0,0
1345491,482,0,0
1345491,480,0,0
1345491,479,0,0
1345492,479,0,0
1345492,484,0,0
1345492,479,0,0
1345492,478,0,0
1345493,478,0,0
1345585,510,0,0
1345586,514,0,0
1345586,510,0,0
1345586,510,0,0
1345586,510,0,0
1345587,514,0,0
1345587,511,0,0
1345587,510,0,0
1345588,508,0,0
1345588,509,0,0
1345588,508,0,0
1345589,507,0,0
1345589,507,0,0
1345589,506,0,0
1345589,506,0,0
1345590,505,0,0
1345590,504,0,0
1345590,503,0,0
1345591,503,0,0
1345591,503,0,0
1345591,501,0,0
1345592,501,0,0
1345592,504,0,0
1345592,500,0,0
1345592,502,0,0
1345593,503,0,0
1345593,502,0,0
1345593,501,0,0
1345594,502,0,0
1345594,504,0,0
1345594,502,0,0
1345594,503,0,0
1345595,505,0,0
1345595,503,0,0
1345595,508,0,0
1345596,507,0,0
1345596,506,0,0
1345596,508,0,0
1345597,505,0,0
1345597,504,0,0
1345597,506,0,0
1345597,505,0,0
1345598,506,0,0
1345598,505,0,0
1345598,506,0,0
1345599,509,0,0
1345599,507,0,0
1345599,510,0,0
1345600,508,0,0
1345600,508,0,0
1345600,514,0,0
1345600,512,0,0
1345601,509,0,0
1345601,511,0,0
1345601,514,0,0
1345602,511,0,0
1345602,514,0,0
1345602,515,0,0
1345602,512,0,0
1345603,515,0,0
1345603,512,0,0
1345603,513,0,0
1345604,511,0,0
1345604,513,0,0
1345604,513,0,0
1345605,517,0,0
1345605,516,0,0
1345605,512,0,0
1345605,513,0,0
1345606,514,0,0
1345606,512,0,0
1345606,512,0,0
1345607,514,0,0
1345607,512,0,0
1345607,513,0,0
1345607,513,0,0
1345608,516,0,0
1345608,517,0,0
1345608,513,0,0
1345609,514,0,0
1345609,513,0,0
1345609,513,0,0
1345610,515,0,0
1345610,517,0,0
1345610,516,0,0
1345610,519,0,0
1345611,519,0,0
1345611,518,0,0
1345611,518,0,0
1345612,522,0,0
1345612,519,0,0
1345612,521,0,0
1345612,521,0,0
1345613,522,0,0
1345613,526,0,0
1345613,524,0,0
1345614,526,0,0
1345614,525,0,0
1345614,526,0,0
1345615,529,0,0
1345658,551,0,0
1345658,553,0,0
1345659,554,0,0
1345659,553,0,0
1345659,549,0,0
1345659,548,0,0
1345660,552,0,0
1345660,549,0,0
1345660,549,0,0
1345661,549,0,0
1345661,549,0,0
1345661,552,0,0
1345662,551,0,0
1345662,549,0,0
1345662,551,0,0
1345662,549,0,0
1345663,553,0,0
1345663,550,0,0
1345663,551,0,0
1345664,551,0,0
1345664,552,0,0
1345664,552,0,0
1345665,552,0,0
1345665,553,0,0
1345665,554,0,0
1345665,554,0,0
1345666,553,0,0
1345666,553,0,0
1345666,555,0,0
1345667,555,0,0
1345667,555,0,0
1345667,555,0,0
1345667,554,0,0
1345668,555,0,0
1345668,558,0,0
1345668,555,0,0
1345669,557,0,0
1345669,555,0,0
1345669,554,0,0
1345670,556,0,0
1345670,553,0,0
1345670,554,0,0
1345670,552,0,0
1345671,554,0,0
1345671,553,0,0
1345671,554,0,0
1345672,549,0,0
1345672,547,0,0
1345672,550,0,0
1345672,546,0,0
1345673,545,0,0
1345673,546,0,0
1345673,543,0,0
1345674,542,0,0
1345674,540,0,0
1345674,542,0,0
1345675,538,0,0
1345675,537,0,0
1345675,537,0,0
1345675,539,0,0
1345676,535,0,0
1345676,535,0,0
1345676,535,0,0
1345677,533,0,0
1345677,532,0,0
1345677,531,0,0
1345678,534,0,0
1345678,531,0,0
1345678,530,0,0
1345678,531,0,0
1345679,530,0,0
1345679,530,0,0
1345679,530,0,0
1345680,530,0,0
1345680,530,0,0
1345680,531,0,0
1345681,530,0,0
1345681,534,0,0
1345681,530,0,0
1345681,530,0,0
1345682,530,0,0
1345682,529,0,0
1345682,530,0,0
1345683,533,0,0
1345683,529,0,0
1345683,530,0,0
1345683,534,0,0
1345684,529,0,0
1345684,529,0,0
1345684,529,0,0
1345685,531,0,0
1345685,528,0,0
1345685,529,0,0
1345686,532,0,0
1345686,527,0,0
1345686,528,0,0
1345686,531,0,0
1345687,528,0,0
1345687,531,0,0
1345687,527,0,0
1345738,497,0,0
1345739,492,0,0
1345739,494,0,0
1345740,495,0,0
1345740,491,0,0
1345740,489,0,0
1345741,492,0,0
1345741,488,0,0
1345741,487,0,0
1345741,486,0,0
1345742,487,0,0
1345742,491,0,0
1345742,485,0,0
1345743,487,0,0
1345743,484,0,0
1345743,487,0,0
1345743,484,0,0
1345744,488,0,0
1345744,488,0,0
1345744,484,0,0
1345745,485,0,0
1345745,485,0,0
1345745,489,0,0
1345746,490,0,0
1345746,488,0,0
1345746,486,0,0
1345746,488,0,0
1345747,494,0,0
1345747,491,0,0
1345747,490,0,0
1345748,495,0,0
1345748,492,0,0
1345748,493,0,0
1345749,495,0,0
1345749,498,0,0
1345749,496,0,0
1345749,496,0,0
1345750,497,0,0
1345750,498,0,0
1345750,499,0,0
1345751,500,0,0
1345751,501,0,0
1345751,502,0,0
1345752,501,0,0
1345752,502,0,0
1345752,502,0,0
1345752,503,0,0
1345753,502,0,0
1345753,505,0,0
1345753,506,0,0
1345754,506,0,0
1345754,506,0,0
1345754,504,0,0
1345754,502,0,0
1345755,502,0,0
1345755,502,0,0
1345755,502,0,0
1345756,500,0,0
1345756,499,0,0
1345756,498,0,0
1345757,498,0,0
1345757,499,0,0
1345757,496,0,0
1345757,501,0,0
1345758,494,0,0
1345758,498,0,0
1345758,493,0,0
1345759,492,0,0
1345759,494,0,0
1345759,496,0,0
1345760,493,0,0
1345760,491,0,0
1345760,495,0,0
1345760,490,0,0
1345761,490,0,0
1345761,489,0,0
1345761,489,0,0
1345762,493,0,0
1345762,489,0,0
1345762,493,0,0
1345762,489,0,0
1345763,489,0,0
1345763,490,0,0
1345763,491,0,0
1345764,489,0,0
1345764,492,0,0
1345764,489,0,0
1345765,490,0,0
1345765,491,0,0
1345765,491,0,0
1345765,490,0,0
1345766,492,0,0
1345766,497,0,0
1345766,494,0,0
1345767,497,0,0
1345767,498,0,0
1345767,495,0,0
1345768,495,0,0
1345768,496,0,0
1345768,495,0,0
1345863,504,0,0
1345863,503,0,0
1345863,507,0,0
1345864,504,0,0
1345864,503,0,0
1345864,508,0,0
1345865,505,0,0
1345865,509,0,0
1345865,507,0,0
1345866,507,0,0
1345866,508,0,0
1345866,508,0,0
1345866,510,0,0
1345867,510,0,0
1345867,514,0,0
1345867,512,0,0
1345868,513,0,0
1345868,513,0,0
1345868,513,0,0
1345868,515,0,0
1345869,514,0,0
1345869,515,0,0
1345869,515,0,0
1345870,515,0,0
1345870,518,0,0
1345870,518,0,0
1345871,516,0,0
1345871,519,0,0
1345871,518,0,0
1345871,515,0,0
1345872,518,0,0
1345872,514,0,0
1345872,515,0,0
1345873,514,0,0
1345873,513,0,0
1345873,513,0,0
1345874,510,0,0
1345874,512,0,0
1345874,510,0,0
1345874,508,0,0
1345875,510,0,0
1345875,507,0,0
1345875,508,0,0
1345876,505,0,0
1345876,505,0,0
1345876,504,0,0
1345877,508,0,0
1345877,504,0,0
1345877,504,0,0
1345877,503,0,0
1345878,507,0,0
1345878,503,0,0
1345878,503,0,0
1345879,503,0,0
1345879,504,0,0
1345879,503,0,0
1345879,505,0,0
1345880,508,0,0
1345880,505,0,0
1345880,505,0,0
1345881,506,0,0
1345881,507,0,0
1345881,511,0,0
1345882,507,0,0
1345882,508,0,0
1345882,508,0,0
1345882,513,0,0
1345883,511,0,0
1345883,511,0,0
1345883,511,0,0
1345884,513,0,0
1345884,512,0,0
1345884,514,0,0
1345885,518,0,0
1345885,515,0,0
1345885,520,0,0
1345885,516,0,0
1345886,515,0,0
1345886,519,0,0
1345886,518,0,0
1345887,520,0,0
1345887,516,0,0
1345887,516,0,0
1345887,516,0,0
1345888,520,0,0
1345888,515,0,0
1345888,515,0,0
1345889,515,0,0
1345889,514,0,0
1345889,513,0,0
1345890,513,0,0
1345890,516,0,0
1345890,513,0,0
1345890,509,0,0
1345891,509,0,0
1345891,508,0,0
1345891,510,0,0
1345892,507,0,0
1345892,508,0,0
1345892,508,0,0
1345940,510,0,0
1345941,506,0,0
1345941,505,0,0
1345942,505,0,0
1345942,504,0,0
1345942,511,0,0
1345942,505,0,0
1345943,503,0,0
1345943,507,0,0
1345943,505,0,0
1345944,502,0,0
1345944,502,0,0
1345944,503,0,0
1345945,503,0,0
1345945,504,0,0
1345945,503,0,0
1345945,507,0,0
1345946,504,0,0
1345946,505,0,0
1345946,506,0,0
1345947,506,0,0
1345947,507,0,0
1345947,507,0,0
1345948,507,0,0
1345948,509,0,0
1345948,510,0,0
1345948,513,0,0
1345949,510,0,0
1345949,515,0,0
1345949,511,0,0
1345950,510,0,0
1345950,515,0,0
1345950,511,0,0
1345950,512,0,0
1345951,516,0,0
1345951,514,0,0
1345951,513,0,0
1345952,513,0,0
1345952,514,0,0
1345952,513,0,0
1345953,514,0,0
1345953,513,0,0
1345953,514,0,0
1345953,514,0,0
1345954,512,0,0
1345954,513,0,0
1345954,513,0,0
1345955,516,0,0
1345955,512,0,0
1345955,511,0,0
1345956,510,0,0
1345956,510,0,0
1345956,510,0,0
1345956,508,0,0
1345957,507,0,0
1345957,509,0,0
1345957,506,0,0
1345958,506,0,0
1345958,505,0,0
1345958,506,0,0
1345958,508,0,0
1345959,505,0,0
1345959,504,0,0
1345959,509,0,0
1345960,505,0,0
1345960,509,0,0
1345960,508,0,0
1345961,505,0,0
1345961,506,0,0
1345961,506,0,0
1345961,509,0,0
1345962,506,0,0
1345962,506,0,0
1345962,511,0,0
1345963,507,0,0
1345963,508,0,0
1345963,508,0,0
1345964,509,0,0
1345964,509,0,0
1345964,509,0,0
1345964,511,0,0
1345965,511,0,0
1345965,509,0,0
1345965,511,0,0
1345966,511,0,0
1345966,513,0,0
1345966,513,0,0
1345966,514,0,0
1345967,514,0,0
1345967,515,0,0
1345967,515,0,0
1345968,516,0,0
1345968,516,0,0
1345968,517,0,0
1345969,519,0,0
1345969,516,0,0
1345969,516,0,0
1345969,517,0,0
1345970,516,0,0
1345970,516,0,0
1346024,529,0,0
1346024,527,0,0
1346025,528,0,0
1346025,528,0,0
1346025,528,0,0
1346026,533,0,0
1346026,533,0,0
1346026,529,0,0
1346026,529,0,0
1346027,530,0,0
1346027,530,0,0
1346027,535,0,0
1346028,531,0,0
1346028,533,0,0
1346028,533,0,0
1346029,533,0,0
1346029,532,0,0
1346029,533,0,0
1346029,537,0,0
1346030,534,0,0
1346030,534,0,0
1346030,534,0,0
1346031,534,0,0
1346031,535,0,0
1346031,535,0,0
1346032,535,0,0
1346032,538,0,0
1346032,537,0,0
1346032,536,0,0
1346033,538,0,0
1346033,537,0,0
1346033,540,0,0
1346034,539,0,0
1346034,538,0,0
1346034,538,0,0
1346035,539,0,0
1346035,539,0,0
1346035,538,0,0
1346035,538,0,0
1346036,539,0,0
1346037,536,0,0
1346037,536,0,0
1346037,536,0,0
1346038,539,0,0
1346038,535,0,0
1346038,538,0,0
1346039,532,0,0
1346039,532,0,0
1346039,531,0,0
1346039,529,0,0
1346040,532,0,0
1346040,532,0,0
1346040,527,0,0
1346041,526,0,0
1346041,524,0,0
1346041,523,0,0
1346042,526,0,0
1346042,526,0,0
1346042,527,0,0
1346042,521,0,0
1346043,521,0,0
1346043,522,0,0
1346043,523,0,0
1346044,519,0,0
1346044,519,0,0
1346044,518,0,0
1346045,521,0,0
1346045,519,0,0
1346045,521,0,0
1346045,519,0,0
1346046,520,0,0
1346046,522,0,0
1346046,521,0,0
1346047,523,0,0
1346047,524,0,0
1346047,523,0,0
1346048,525,0,0
1346048,526,0,0
1346048,527,0,0
1346048,527,0,0
1346059,545,0,0
1346059,542,0,0
1346059,542,0,0
1346059,542,0,0
1346060,543,0,0
1346060,543,0,0
1346060,542,0,0
1346061,543,0,0
1346061,541,0,0
1346061,542,0,0
1346062,541,0,0
1346062,541,0,0
1346062,541,0,0
1346062,540,0,0
1346063,543,0,0
1346063,540,0,0
1346063,539,0,0
1346064,540,0,0
1346064,538,0,0
1346064,541,0,0
1346161,943,0,0
1346161,951,0,0
1346162,953,0,0
1346162,957,0,0
1346162,959,0,0
1346163,965,0,0
1346163,961,0,0
1346163,961,0,0
1346164,959,0,0
1346164,961,0,0
1346164,961,0,0
1346165,957,0,0
1346165,950,0,0
1346165,944,0,0
1346165,943,0,0
1346166,936,0,0
1346166,929,0,0
1346166,922,0,0
1346167,913,0,0
1346167,906,0,0
1346167,901,0,0
1346168,885,0,0
1346168,874,0,0
1346168,863,0,0
1346168,851,0,0
1346169,836,0,0
1346169,823,0,0
1346169,809,0,0
1346170,796,0,0
1346170,782,0,0
1346170,769,0,0
1346170,750,0,0
1346171,735,0,0
1346171,721,0,0
1346171,705,0,0
1346172,691,0,0
1346172,677,0,0
1346172,664,0,0
1346173,653,0,0
1346173,637,0,0
1346173,623,0,0
1346173,606,0,0
1346174,593,0,0
1346174,580,0,0
1346174,568,0,0
1346175,557,0,0
1346175,545,0,0
1346175,536,0,0
1346176,525,0,0
1346176,514,0,0
1346176,504,0,0
1346176,498,0,0
1346177,487,0,0
1346177,479,0,0
1346177,473,0,0
1346178,465,0,0
1346178,460,0,0
1346178,456,0,0
1346178,452,0,0
1346179,452,0,0
1346179,446,0,0
1346179,441,0,0
1346180,440,0,0
1346180,438,0,0
1346180,438,0,0
1346181,442,0,0
1346181,437,0,0
1346181,438,0,0
1346181,440,0,0
1346182,442,0,0
1346182,447,0,0
1346182,448,0,0
1346183,451,0,0
1346183,452,0,0
1346183,456,0,0
1346184,459,0,0
1346184,464,0,0
1346184,467,0,0
1346184,471,0,0
1346185,480,0,0
1346185,482,0,0
1346185,485,0,0
1346186,489,0,0
1346186,500,0,0
1346186,500,0,0
1346187,503,0,0
1346187,511,0,0
1346187,513,0,0
1346187,521,0,0
1346188,521,0,0
1346188,527,0,0
1346188,529,0,0
1346189,534,0,0
1346189,536,0,0
1346189,543,0,0
1346189,544,0,0
1346190,546,0,0
1346190,548,0,0
1346190,551,0,0
1346191,552,0,0
1346240,484,0,0
1346241,488,0,0
1346241,483,0,0
1346241,483,0,0
1346242,482,0,0
1346242,482,0,0
1346242,482,0,0
1346242,483,0,0
1346243,482,0,0
1346243,482,0,0
1346243,485,0,0
1346244,481,0,0
1346244,482,0,0
1346244,481,0,0
1346245,482,0,0
1346245,482,0,0
1346245,484,0,0
1346245,483,0,0
1346246,483,0,0
1346246,485,0,0
1346246,485,0,0
1346247,485,0,0
1346247,486,0,0
1346247,486,0,0
1346248,487,0,0
1346248,492,0,0
1346248,488,0,0
1346248,490,0,0
1346249,495,0,0
1346249,491,0,0
1346249,492,0,0
1346250,497,0,0
1346250,493,0,0
1346250,497,0,0
1346251,493,0,0
1346251,495,0,0
1346251,495,0,0
1346251,500,0,0
1346252,497,0,0
1346252,497,0,0
1346252,497,0,0
1346253,497,0,0
1346253,498,0,0
1346253,497,0,0
1346253,498,0,0
1346254,497,0,0
1346254,499,0,0
1346254,498,0,0
1346255,496,0,0
1346255,495,0,0
1346255,496,0,0
1346256,494,0,0
1346256,495,0,0
1346256,494,0,0
1346256,493,0,0
1346257,493,0,0
1346257,492,0,0
1346257,490,0,0
1346258,492,0,0
1346258,489,0,0
1346258,493,0,0
1346259,487,0,0
1346259,489,0,0
1346259,487,0,0
1346259,488,0,0
1346260,490,0,0
1346260,486,0,0
1346260,487,0,0
1346261,487,0,0
1346261,488,0,0
1346261,487,0,0
1346261,486,0,0
1346262,486,0,0
1346262,487,0,0
1346262,486,0,0
1346263,488,0,0
1346263,487,0,0
1346263,488,0,0
1346264,488,0,0
1346264,488,0,0
1346264,492,0,0
1346264,493,0,0
1346265,489,0,0
1346265,490,0,0
1346265,492,0,0
1346266,491,0,0
1346266,493,0,0
1346266,494,0,0
1346267,492,0,0
1346267,493,0,0
1346267,494,0,0
1346267,495,0,0
1346268,498,0,0
1346268,496,0,0
1346268,496,0,0
1346269,497,0,0
1346269,497,0,0
1346269,497,0,0
1346270,497,0,0
1346270,498,0,0
1346361,535,0,0
1346362,535,0,0
1346362,539,0,0
1346362,535,0,0
1346363,537,0,0
1346363,537,0,0
1346363,537,0,0
1346363,541,0,0
1346364,540,0,0
1346364,540,0,0
1346364,539,0,0
1346365,539,0,0
1346365,539,0,0
1346365,543,0,0
1346366,541,0,0
1346366,542,0,0
1346366,541,0,0
1346366,546,0,0
1346367,543,0,0
1346367,545,0,0
1346367,545,0,0
1346368,547,0,0
1346368,544,0,0
1346368,545,0,0
1346369,544,0,0
1346369,547,0,0
1346369,547,0,0
1346369,544,0,0
1346370,545,0,0
1346370,544,0,0
1346370,548,0,0
1346371,545,0,0
1346371,545,0,0
1346371,544,0,0
1346372,547,0,0
1346372,546,0,0
1346372,544,0,0
1346372,546,0,0
1346373,543,0,0
1346373,544,0,0
1346373,547,0,0
1346374,544,0,0
1346374,543,0,0
1346374,541,0,0
1346374,539,0,0
1346375,539,0,0
1346375,541,0,0
1346375,539,0,0
1346376,537,0,0
1346376,539,0,0
1346376,535,0,0
1346377,536,0,0
1346377,536,0,0
1346377,536,0,0
1346377,536,0,0
1346378,535,0,0
1346378,535,0,0
1346378,536,0,0
1346379,536,0,0
1346379,541,0,0
1346379,537,0,0
1346379,538,0,0
1346380,538,0,0
1346380,541,0,0
1346380,539,0,0
1346381,541,0,0
1346381,539,0,0
1346381,542,0,0
1346382,545,0,0
1346382,542,0,0
1346382,543,0,0
1346382,548,0,0
1346383,547,0,0
1346383,545,0,0
1346383,547,0,0
1346384,548,0,0
1346384,548,0,0
1346384,549,0,0
1346385,550,0,0
1346385,554,0,0
1346385,551,0,0
1346385,551,0,0
1346386,551,0,0
1346386,557,0,0
1346386,557,0,0
1346387,552,0,0
1346387,555,0,0
1346387,552,0,0
1346388,554,0,0
1346388,554,0,0
1346388,551,0,0
1346388,552,0,0
1346389,554,0,0
1346389,553,0,0
1346389,551,0,0
1346390,551,0,0
1346390,549,0,0
1346390,549,0,0
1346390,550,0,0
1346391,549,0,0
1346439,503,0,0
1346440,499,0,0
1346440,498,0,0
1346440,500,0,0
1346441,494,0,0
1346441,493,0,0
1346441,494,0,0
1346441,496,0,0
1346442,491,0,0
1346442,494,0,0
1346442,489,0,0
1346443,489,0,0
1346443,489,0,0
1346443,488,0,0
1346444,489,0,0
1346444,489,0,0
1346444,487,0,0
1346444,487,0,0
1346445,491,0,0
1346445,492,0,0
1346445,487,0,0
1346446,487,0,0
1346446,487,0,0
1346446,487,0,0
1346446,491,0,0
1346447,491,0,0
1346447,489,0,0
1346447,492,0,0
1346448,488,0,0
1346448,491,0,0
1346448,490,0,0
1346449,490,0,0
1346449,494,0,0
1346449,493,0,0
1346449,492,0,0
1346450,493,0,0
1346450,493,0,0
1346450,499,0,0
1346451,494,0,0
1346451,495,0,0
1346451,499,0,0
1346452,496,0,0
1346452,496,0,0
1346452,497,0,0
1346452,499,0,0
1346453,497,0,0
1346453,497,0,0
1346453,496,0,0
1346454,498,0,0
1346454,498,0,0
1346454,501,0,0
1346455,496,0,0
1346455,497,0,0
1346455,496,0,0
1346455,497,0,0
1346456,495,0,0
1346456,495,0,0
1346456,493,0,0
1346457,493,0,0
1346457,491,0,0
1346457,496,0,0
1346457,492,0,0
1346458,489,0,0
1346458,488,0,0
1346458,487,0,0
1346459,488,0,0
1346459,486,0,0
1346459,488,0,0
1346460,485,0,0
1346460,490,0,0
1346460,483,0,0
1346460,485,0,0
1346461,482,0,0
1346461,481,0,0
1346461,482,0,0
1346462,480,0,0
1346462,481,0,0
1346462,485,0,0
1346463,481,0,0
1346463,485,0,0
1346463,481,0,0
1346463,483,0,0
1346464,482,0,0
1346464,483,0,0
1346464,483,0,0
1346465,486,0,0
1346465,486,0,0
1346465,486,0,0
1346465,486,0,0
1346466,492,0,0
1346466,492,0,0
1346466,490,0,0
1346467,490,0,0
1346467,491,0,0
1346467,492,0,0
1346468,493,0,0
1346468,494,0,0
1346468,495,0,0
1346468,496,0,0
1346469,496,0,0
1346520,503,0,0
1346521,502,0,0
1346521,501,0,0
1346521,502,0,0
1346522,501,0,0
1346522,505,0,0
1346522,504,0,0
1346523,501,0,0
1346523,498,0,0
1346523,500,0,0
1346524,496,0,0
1346524,496,0,0
1346524,497,0,0
1346524,493,0,0
1346525,492,0,0
1346525,491,0,0
1346525,490,0,0
1346526,489,0,0
1346526,488,0,0
1346526,489,0,0
1346527,487,0,0
1346527,487,0,0
1346527,486,0,0
1346527,491,0,0
1346528,490,0,0
1346528,486,0,0
1346528,486,0,0
1346529,486,0,0
1346529,490,0,0
1346529,487,0,0
1346529,486,0,0
1346530,487,0,0
1346530,488,0,0
1346530,488,0,0
1346531,492,0,0
1346531,489,0,0
1346531,489,0,0
1346532,491,0,0
1346532,490,0,0
1346532,492,0,0
1346532,496,0,0
1346533,495,0,0
1346533,497,0,0
1346533,495,0,0
1346534,496,0,0
1346534,496,0,0
1346534,499,0,0
1346535,499,0,0
1346535,500,0,0
1346535,501,0,0
1346535,502,0,0
1346536,502,0,0
1346536,504,0,0
1346536,504,0,0
1346537,504,0,0
1346537,505,0,0
1346537,507,0,0
1346538,505,0,0
1346538,509,0,0
1346538,506,0,0
1346538,506,0,0
1346539,504,0,0
1346539,504,0,0
1346539,504,0,0
1346540,506,0,0
1346540,502,0,0
1346540,503,0,0
1346540,505,0,0
1346541,500,0,0
1346541,499,0,0
1346541,499,0,0
1346542,499,0,0
1346542,499,0,0
1346542,498,0,0
1346543,500,0,0
1346543,498,0,0
1346543,500,0,0
1346543,501,0,0
1346544,498,0,0
1346544,497,0,0
1346544,499,0,0
1346545,497,0,0
1346545,499,0,0
1346545,497,0,0
1346546,498,0,0
1346546,502,0,0
1346546,498,0,0
1346546,500,0,0
1346547,500,0,0
1346547,500,0,0
1346547,501,0,0
1346548,501,0,0
1346548,503,0,0
1346548,503,0,0
1346548,503,0,0
1346549,504,0,0
1346549,504,0,0
1346549,509,0,0
1346550,506,0,0
1346550,508,0,0
1346645,499,0,0
1346646,499,0,0
1346646,504,0,0
1346646,504,0,0
1346647,504,0,0
1346647,504,0,0
1346647,502,0,0
1346647,501,0,0
1346648,504,0,0
1346648,503,0,0
1346648,503,0,0
1346649,503,0,0
1346649,509,0,0
1346649,506,0,0
1346650,506,0,0
1346650,507,0,0
1346650,509,0,0
1346650,512,0,0
1346651,512,0,0
1346651,509,0,0
1346651,514,0,0
1346652,513,0,0
1346652,512,0,0
1346652,514,0,0
1346653,512,0,0
1346653,515,0,0
1346653,517,0,0
1346653,513,0,0
1346654,514,0,0
1346654,513,0,0
1346654,515,0,0
1346655,512,0,0
1346655,513,0,0
1346655,511,0,0
1346656,511,0,0
1346656,513,0,0
1346656,510,0,0
1346656,513,0,0
1346657,510,0,0
1346657,508,0,0
1346657,507,0,0
1346658,506,0,0
1346658,505,0,0
1346658,505,0,0
1346658,504,0,0
1346659,504,0,0
1346659,503,0,0
1346659,505,0,0
1346660,502,0,0
1346660,501,0,0
1346660,503,0,0
1346661,503,0,0
1346661,500,0,0
1346661,502,0,0
1346661,502,0,0
1346662,502,0,0
1346662,501,0,0
1346662,505,0,0
1346663,501,0,0
1346663,505,0,0
1346663,501,0,0
1346664,503,0,0
1346664,501,0,0
1346664,502,0,0
1346664,501,0,0
1346665,505,0,0
1346665,505,0,0
1346665,502,0,0
1346666,504,0,0
1346666,503,0,0
1346666,505,0,0
1346666,504,0,0
1346667,506,0,0
1346667,507,0,0
1346667,510,0,0
1346668,506,0,0
1346668,507,0,0
1346668,508,0,0
1346669,508,0,0
1346669,509,0,0
1346669,508,0,0
1346669,512,0,0
1346670,509,0,0
1346670,511,0,0
1346670,509,0,0
1346671,513,0,0
1346671,509,0,0
1346671,511,0,0
1346672,511,0,0
1346672,507,0,0
1346672,508,0,0
1346672,506,0,0
1346673,506,0,0
1346673,506,0,0
1346673,507,0,0
1346674,504,0,0
1346674,503,0,0
1346674,502,0,0
1346674,503,0,0
1346675,502,0,0
1346766,508,0,0
1346766,512,0,0
1346766,508,0,0
1346767,508,0,0
1346767,511,0,0
1346767,512,0,0
1346768,508,0,0
1346768,512,0,0
1346768,508,0,0
1346769,509,0,0
1346769,510,0,0
1346769,510,0,0
1346769,510,0,0
1346770,510,0,0
1346770,510,0,0
1346770,514,0,0
1346771,514,0,0
1346771,511,0,0
1346771,514,0,0
1346771,511,0,0
1346772,510,0,0
1346772,510,0,0
1346772,511,0,0
1346773,510,0,0
1346773,513,0,0
1346773,510,0,0
1346774,508,0,0
1346774,509,0,0
1346774,507,0,0
1346774,507,0,0
1346775,507,0,0
1346775,507,0,0
1346775,506,0,0
1346776,506,0,0
1346776,505,0,0
1346776,506,0,0
1346777,505,0,0
1346777,504,0,0
1346777,504,0,0
1346777,505,0,0
1346778,507,0,0
1346778,504,0,0
1346778,508,0,0
1346779,507,0,0
1346779,507,0,0
1346779,503,0,0
1346780,506,0,0
1346780,504,0,0
1346780,508,0,0
1346780,508,0,0
1346781,504,0,0
1346781,504,0,0
1346781,505,0,0
1346782,504,0,0
1346782,508,0,0
1346782,506,0,0
1346782,505,0,0
1346783,509,0,0
1346783,507,0,0
1346783,506,0,0
1346784,506,0,0
1346784,507,0,0
1346784,506,0,0
1346785,506,0,0
1346785,506,0,0
1346785,506,0,0
1346785,506,0,0
1346786,507,0,0
1346786,506,0,0
1346786,505,0,0
1346787,505,0,0
1346787,505,0,0
1346787,505,0,0
1346787,503,0,0
1346788,506,0,0
1346788,503,0,0
1346788,506,0,0
1346789,500,0,0
1346789,500,0,0
1346789,499,0,0
1346790,498,0,0
1346790,501,0,0
1346790,495,0,0
1346790,495,0,0
1346791,494,0,0
1346791,493,0,0
1346791,492,0,0
1346792,492,0,0
1346792,491,0,0
1346792,490,0,0
1346793,489,0,0
1346793,489,0,0
1346793,489,0,0
1346793,493,0,0
1346794,489,0,0
1346794,491,0,0
1346794,488,0,0
1346795,492,0,0
1346795,489,0,0
1346795,489,0,0
1346887,552,0,0
1346888,556,0,0
1346888,555,0,0
1346888,555,0,0
1346889,557,0,0
1346889,553,0,0
1346889,553,0,0
1346890,550,0,0
1346890,553,0,0
1346890,547,0,0
1346891,546,0,0
1346891,543,0,0
1346891,544,0,0
1346891,539,0,0
1346892,537,0,0
1346892,538,0,0
1346892,533,0,0
1346893,530,0,0
1346893,528,0,0
1346893,526,0,0
1346894,524,0,0
1346894,525,0,0
1346894,520,0,0
1346894,522,0,0
1346895,519,0,0
1346895,515,0,0
1346895,516,0,0
1346896,510,0,0
1346896,507,0,0
1346896,506,0,0
1346896,504,0,0
1346897,504,0,0
1346897,501,0,0
1346897,499,0,0
1346898,498,0,0
1346898,496,0,0
1346898,495,0,0
1346899,494,0,0
1346899,493,0,0
1346899,492,0,0
1346899,493,0,0
1346900,490,0,0
1346900,489,0,0
1346900,489,0,0
1346901,489,0,0
1346901,490,0,0
1346901,489,0,0
1346902,488,0,0
1346902,486,0,0
1346902,486,0,0
1346902,485,0,0
1346903,484,0,0
1346903,487,0,0
1346903,488,0,0
1346904,486,0,0
1346904,482,0,0
1346904,482,0,0
1346904,483,0,0
1346905,484,0,0
1346905,480,0,0
1346905,480,0,0
1346906,481,0,0
1346906,480,0,0
1346906,478,0,0
1346907,480,0,0
1346907,475,0,0
1346907,475,0,0
1346907,477,0,0
1346908,475,0,0
1346908,474,0,0
1346908,474,0,0
1346909,473,0,0
1346909,473,0,0
1346909,473,0,0
1346910,472,0,0
1346910,472,0,0
1346910,475,0,0
1346910,472,0,0
1346911,472,0,0
1346911,475,0,0
1346911,478,0,0
1346912,477,0,0
1346912,476,0,0
1346912,479,0,0
1346912,475,0,0
1346913,476,0,0
1346913,475,0,0
1346913,478,0,0
1346914,478,0,0
1346914,479,0,0
1346914,480,0,0
1346915,485,0,0
1346915,482,0,0
1346915,482,0,0
1346915,484,0,0
1346916,485,0,0
1346916,488,0,0
1346916,487,0,0
1346917,487,0,0
1346917,487,0,0
1346961,488,0,0
1346962,484,0,0
1346962,488,0,0
1346962,491,0,0
1346962,491,0,0
1346963,485,0,0
1346963,485,0,0
1346963,486,0,0
1346964,490,0,0
1346964,486,0,0
1346964,489,0,0
1346965,487,0,0
1346965,492,0,0
1346965,489,0,0
1346965,490,0,0
1346966,490,0,0
1346966,490,0,0
1346966,490,0,0
1346967,490,0,0
1346967,491,0,0
1346967,491,0,0
1346968,492,0,0
1346968,497,0,0
1346968,493,0,0
1346968,493,0,0
1346969,495,0,0
1346969,493,0,0
1346969,498,0,0
1346970,500,0,0
1346970,499,0,0
1346970,494,0,0
1346970,495,0,0
1346971,496,0,0
1346971,495,0,0
1346971,499,0,0
1346972,496,0,0
1346972,493,0,0
1346972,497,0,0
1346973,493,0,0
1346973,493,0,0
1346973,493,0,0
1346973,495,0,0
1346974,492,0,0
1346974,491,0,0
1346974,495,0,0
1346975,495,0,0
1346975,490,0,0
1346975,490,0,0
1346975,490,0,0
1346976,490,0,0
1346976,494,0,0
1346976,490,0,0
1346977,490,0,0
1346977,495,0,0
1346977,491,0,0
1346978,491,0,0
1346978,491,0,0
1346978,491,0,0
1346978,492,0,0
1346979,493,0,0
1346979,496,0,0
1346979,494,0,0
1346980,499,0,0
1346980,495,0,0
1346980,495,0,0
1346981,495,0,0
1346981,495,0,0
1346981,495,0,0
1346981,499,0,0
1346982,496,0,0
1346982,496,0,0
1346982,496,0,0
1346983,496,0,0
1346983,496,0,0
1346983,496,0,0
1346983,500,0,0
1346984,498,0,0
1346984,497,0,0
1346984,499,0,0
1346985,497,0,0
1346985,497,0,0
1346985,497,0,0
1346986,496,0,0
1346986,497,0,0
1346986,496,0,0
1346986,496,0,0
1346987,495,0,0
1346987,496,0,0
1346987,496,0,0
1346988,496,0,0
1346988,499,0,0
1346988,495,0,0
1346989,498,0,0
1346989,498,0,0
1346989,497,0,0
1346989,495,0,0
1346990,492,0,0
1346990,492,0,0
1346990,492,0,0
1346991,495,0,0
1347041,521,0,0
1347041,524,0,0
1347042,521,0,0
1347042,522,0,0
1347042,524,0,0
1347043,525,0,0
1347043,525,0,0
1347043,526,0,0
1347044,523,0,0
1347044,524,0,0
1347044,526,0,0
1347044,526,0,0
1347045,525,0,0
1347045,526,0,0
1347045,527,0,0
1347046,527,0,0
1347046,531,0,0
1347046,529,0,0
1347047,530,0,0
1347047,531,0,0
1347047,532,0,0
1347047,534,0,0
1347048,533,0,0
1347048,533,0,0
1347048,534,0,0
1347049,538,0,0
1347049,535,0,0
1347049,535,0,0
1347050,539,0,0
1347050,537,0,0
1347050,536,0,0
1347050,537,0,0
1347051,538,0,0
1347051,538,0,0
1347051,543,0,0
1347052,539,0,0
1347052,540,0,0
1347052,541,0,0
1347052,540,0,0
1347053,541,0,0
1347053,539,0,0
1347053,541,0,0
1347054,543,0,0
1347054,540,0,0
1347054,539,0,0
1347055,539,0,0
1347055,535,0,0
1347055,537,0,0
1347055,537,0,0
1347056,539,0,0
1347056,538,0,0
1347056,535,0,0
1347057,539,0,0
1347057,533,0,0
1347057,534,0,0
1347058,531,0,0
1347058,532,0,0
1347058,530,0,0
1347058,529,0,0
1347059,529,0,0
1347059,530,0,0
1347059,532,0,0
1347060,531,0,0
1347060,527,0,0
1347060,528,0,0
1347061,527,0,0
1347061,528,0,0
1347061,529,0,0
1347061,530,0,0
1347062,529,0,0
1347062,532,0,0
1347062,533,0,0
1347063,531,0,0
1347063,536,0,0
1347063,537,0,0
1347064,533,0,0
1347064,535,0,0
1347064,535,0,0
1347064,539,0,0
1347065,539,0,0
1347065,538,0,0
1347065,539,0,0
1347066,540,0,0
1347066,542,0,0
1347066,548,0,0
1347066,547,0,0
1347067,544,0,0
1347067,546,0,0
1347067,548,0,0
1347068,547,0,0
1347068,549,0,0
1347068,550,0,0
1347069,549,0,0
1347069,550,0,0
1347069,549,0,0
1347069,548,0,0
1347070,554,0,0
1347070,552,0,0
1347070,550,0,0
1347071,552,0,0
1347166,498,0,0
1347166,497,0,0
1347167,498,0,0
1347167,501,0,0
1347167,500,0,0
1347168,500,0,0
1347168,501,0,0
1347168,505,0,0
1347169,502,0,0
1347169,506,0,0
1347169,502,0,0
1347169,506,0,0
1347170,506,0,0
1347170,503,0,0
1347170,502,0,0
1347171,501,0,0
1347171,502,0,0
1347171,504,0,0
1347172,502,0,0
1347172,500,0,0
1347172,499,0,0
1347172,499,0,0
1347173,498,0,0
1347173,498,0,0
1347173,497,0,0
1347174,497,0,0
1347174,496,0,0
1347174,494,0,0
1347175,492,0,0
1347175,496,0,0
1347175,492,0,0
1347175,490,0,0
1347176,489,0,0
1347176,489,0,0
1347176,487,0,0
1347177,488,0,0
1347177,487,0,0
1347177,492,0,0
1347177,486,0,0
1347178,491,0,0
1347178,488,0,0
1347178,487,0,0
1347179,487,0,0
1347179,491,0,0
1347179,489,0,0
1347180,488,0,0
1347180,488,0,0
1347180,489,0,0
1347180,494,0,0
1347181,494,0,0
1347181,494,0,0
1347181,492,0,0
1347182,491,0,0
1347182,491,0,0
1347182,493,0,0
1347183,497,0,0
1347183,496,0,0
1347183,495,0,0
1347183,494,0,0
1347184,494,0,0
1347184,495,0,0
1347184,495,0,0
1347185,497,0,0
1347185,496,0,0
1347185,502,0,0
1347186,497,0,0
1347186,499,0,0
1347186,502,0,0
1347186,497,0,0
1347187,500,0,0
1347187,498,0,0
1347187,499,0,0
1347188,499,0,0
1347188,499,0,0
1347188,499,0,0
1347188,498,0,0
1347189,498,0,0
1347189,498,0,0
1347189,497,0,0
1347190,497,0,0
1347190,497,0,0
1347190,499,0,0
1347191,495,0,0
1347191,498,0,0
1347191,495,0,0
1347191,495,0,0
1347192,496,0,0
1347192,493,0,0
1347192,493,0,0
1347193,497,0,0
1347193,494,0,0
1347193,495,0,0
1347194,494,0,0
1347194,500,0,0
1347194,495,0,0
1347194,494,0,0
1347195,494,0,0
1347195,495,0,0
1347195,496,0,0
1347196,497,0,0
1347243,503,0,0
1347243,501,0,0
1347244,503,0,0
1347244,504,0,0
1347244,501,0,0
1347245,501,0,0
1347245,501,0,0
1347245,502,0,0
1347245,503,0,0
1347246,505,0,0
1347246,507,0,0
1347246,508,0,0
1347247,505,0,0
1347247,504,0,0
1347247,505,0,0
1347248,507,0,0
1347248,508,0,0
1347248,507,0,0
1347248,512,0,0
1347249,508,0,0
1347249,510,0,0
1347249,509,0,0
1347250,510,0,0
1347250,511,0,0
1347250,516,0,0
1347250,511,0,0
1347251,513,0,0
1347251,512,0,0
1347251,514,0,0
1347252,514,0,0
1347252,515,0,0
1347252,514,0,0
1347253,516,0,0
1347253,514,0,0
1347253,514,0,0
1347253,514,0,0
1347254,515,0,0
1347254,513,0,0
1347254,517,0,0
1347255,515,0,0
1347255,516,0,0
1347255,512,0,0
1347256,510,0,0
1347256,511,0,0
1347256,510,0,0
1347256,510,0,0
1347257,508,0,0
1347257,509,0,0
1347257,507,0,0
1347258,507,0,0
1347258,508,0,0
1347258,509,0,0
1347258,504,0,0
1347259,509,0,0
1347259,507,0,0
1347259,503,0,0
1347260,506,0,0
1347260,504,0,0
1347260,503,0,0
1347261,504,0,0
1347261,505,0,0
1347261,505,0,0
1347261,507,0,0
1347262,503,0,0
1347262,505,0,0
1347262,503,0,0
1347263,503,0,0
1347263,504,0,0
1347263,506,0,0
1347264,506,0,0
1347264,507,0,0
1347264,510,0,0
1347264,507,0,0
1347265,507,0,0
1347265,508,0,0
1347265,511,0,0
1347266,509,0,0
1347266,512,0,0
1347266,509,0,0
1347267,511,0,0
1347267,510,0,0
1347267,509,0,0
1347267,511,0,0
1347268,511,0,0
1347268,512,0,0
1347268,513,0,0
1347269,513,0,0
1347269,513,0,0
1347269,513,0,0
1347269,516,0,0
1347270,515,0,0
1347270,514,0,0
1347270,515,0,0
1347271,513,0,0
1347271,513,0,0
1347271,517,0,0
1347272,511,0,0
1347272,512,0,0
1347272,510,0,0
1347272,509,0,0
1347363,506,0,0
1347363,510,0,0
1347364,506,0,0
1347364,512,0,0
1347364,507,0,0
1347365,508,0,0
1347365,509,0,0
1347365,510,0,0
1347366,510,0,0
1347366,509,0,0
1347366,509,0,0
1347366,513,0,0
1347367,510,0,0
1347367,511,0,0
1347367,515,0,0
1347368,511,0,0
1347368,511,0,0
1347368,511,0,0
1347369,512,0,0
1347369,514,0,0
1347369,512,0,0
1347369,514,0,0
1347370,513,0,0
1347370,515,0,0
1347370,511,0,0
1347371,511,0,0
1347371,515,0,0
1347371,514,0,0
1347372,510,0,0
1347372,509,0,0
1347372,508,0,0
1347372,509,0,0
1347373,508,0,0
1347373,510,0,0
1347373,512,0,0
1347374,507,0,0
1347374,506,0,0
1347374,504,0,0
1347375,505,0,0
1347375,507,0,0
1347375,503,0,0
1347375,502,0,0
1347376,501,0,0
1347376,502,0,0
1347376,504,0,0
1347377,501,0,0
1347377,501,0,0
1347377,501,0,0
1347377,501,0,0
1347378,504,0,0
1347378,501,0,0
1347378,501,0,0
1347379,501,0,0
1347379,502,0,0
1347379,502,0,0
1347380,502,0,0
1347380,502,0,0
1347380,503,0,0
1347380,505,0,0
1347381,504,0,0
1347381,505,0,0
1347381,508,0,0
1347382,508,0,0
1347382,506,0,0
1347382,509,0,0
1347383,509,0,0
1347383,508,0,0
1347383,508,0,0
1347383,509,0,0
1347384,510,0,0
1347384,511,0,0
1347384,511,0,0
1347385,511,0,0
1347385,516,0,0
1347385,512,0,0
1347386,513,0,0
1347386,513,0,0
1347386,514,0,0
1347386,514,0,0
1347387,514,0,0
1347387,515,0,0
1347387,514,0,0
1347388,514,0,0
1347388,514,0,0
1347388,513,0,0
1347388,513,0,0
1347389,513,0,0
1347389,513,0,0
1347389,511,0,0
1347390,511,0,0
1347390,511,0,0
1347390,510,0,0
1347391,510,0,0
1347391,511,0,0
1347391,510,0,0
1347391,506,0,0
1347392,508,0,0
1347392,505,0,0
1347392,505,0,0
1347393,504,0,0
1347437,519,0,0
1347438,518,0,0
1347438,519,0,0
1347438,519,0,0
1347438,521,0,0
1347439,520,0,0
1347439,515,0,0
1347439,515,0,0
1347440,514,0,0
1347440,513,0,0
1347440,513,0,0
1347441,515,0,0
1347441,511,0,0
1347441,509,0,0
1347441,508,0,0
1347442,507,0,0
1347442,509,0,0
1347442,508,0,0
1347443,505,0,0
1347443,504,0,0
1347443,506,0,0
1347444,505,0,0
1347444,504,0,0
1347444,502,0,0
1347444,501,0,0
1347445,501,0,0
1347445,505,0,0
1347445,501,0,0
1347446,501,0,0
1347446,501,0,0
1347446,501,0,0
1347447,505,0,0
1347447,503,0,0
1347447,503,0,0
1347447,503,0,0
1347448,507,0,0
1347448,509,0,0
1347448,505,0,0
1347449,506,0,0
1347449,507,0,0
1347449,509,0,0
1347449,510,0,0
1347450,512,0,0
1347450,511,0,0
1347450,515,0,0
1347451,515,0,0
1347451,516,0,0
1347451,521,0,0
1347452,518,0,0
1347452,518,0,0
1347452,520,0,0
1347452,520,0,0
1347453,523,0,0
1347453,523,0,0
1347453,524,0,0
1347454,525,0,0
1347454,526,0,0
1347454,526,0,0
1347455,527,0,0
1347455,528,0,0
1347455,528,0,0
1347455,528,0,0
1347456,529,0,0
1347456,530,0,0
1347456,530,0,0
1347457,532,0,0
1347457,530,0,0
1347457,533,0,0
1347458,533,0,0
1347458,530,0,0
1347458,530,0,0
1347458,530,0,0
1347459,531,0,0
1347459,531,0,0
1347459,531,0,0
1347460,531,0,0
1347460,533,0,0
1347460,530,0,0
1347461,534,0,0
1347461,531,0,0
1347461,531,0,0
1347461,531,0,0
1347462,534,0,0
1347462,532,0,0
1347462,531,0,0
1347463,532,0,0
1347463,532,0,0
1347463,535,0,0
1347463,535,0,0
1347464,533,0,0
1347464,535,0,0
1347464,536,0,0
1347465,532,0,0
1347465,532,0,0
1347465,533,0,0
1347466,532,0,0
1347466,534,0,0
1347466,536,0,0
1347466,533,0,0
1347467,535,0,0
1347518,516,0,0
1347518,517,0,0
1347519,517,0,0
1347519,521,0,0
1347519,518,0,0
1347520,521,0,0
1347520,518,0,0
1347520,518,0,0
1347521,518,0,0
1347521,519,0,0
1347521,519,0,0
1347521,517,0,0
1347522,520,0,0
1347522,517,0,0
1347522,518,0,0
1347523,514,0,0
1347523,515,0,0
1347523,515,0,0
1347524,515,0,0
1347524,513,0,0
1347524,510,0,0
1347524,513,0,0
1347525,509,0,0
1347525,508,0,0
1347525,506,0,0
1347526,506,0,0
1347526,505,0,0
1347526,505,0,0
1347527,504,0,0
1347527,505,0,0
1347527,504,0,0
1347527,508,0,0
1347528,503,0,0
1347528,504,0,0
1347528,502,0,0
1347529,504,0,0
1347529,503,0,0
1347529,507,0,0
1347529,506,0,0
1347530,504,0,0
1347530,504,0,0
1347530,510,0,0
1347531,505,0,0
1347531,505,0,0
1347531,505,0,0
1347532,509,0,0
1347532,505,0,0
1347532,506,0,0
1347532,506,0,0
1347533,507,0,0
1347533,511,0,0
1347533,508,0,0
1347534,508,0,0
1347534,508,0,0
1347534,509,0,0
1347535,510,0,0
1347535,509,0,0
1347535,510,0,0
1347535,516,0,0
1347536,511,0,0
1347536,510,0,0
1347536,511,0,0
1347537,511,0,0
1347537,513,0,0
1347537,511,0,0
1347537,510,0,0
1347538,510,0,0
1347538,513,0,0
1347538,511,0,0
1347539,510,0,0
1347539,513,0,0
1347539,509,0,0
1347540,514,0,0
1347540,507,0,0
1347540,505,0,0
1347540,504,0,0
1347541,509,0,0
1347541,507,0,0
1347541,502,0,0
1347542,502,0,0
1347542,506,0,0
1347542,500,0,0
1347543,499,0,0
1347543,504,0,0
1347543,499,0,0
1347543,499,0,0
1347544,498,0,0
1347544,503,0,0
1347544,498,0,0
1347545,501,0,0
1347545,497,0,0
1347545,498,0,0
1347546,502,0,0
1347546,500,0,0
1347546,497,0,0
1347546,501,0,0
1347547,499,0,0
1347547,498,0,0
1347547,503,0,0
1347548,498,0,0
1347640,481,0,0
1347641,475,0,0
1347641,474,0,0
1347642,476,0,0
1347642,477,0,0
1347642,471,0,0
1347642,470,0,0
1347643,470,0,0
1347643,469,0,0
1347643,468,0,0
1347644,469,0,0
1347644,468,0,0
1347644,469,0,0
1347645,468,0,0
1347645,469,0,0
1347645,469,0,0
1347645,469,0,0
1347646,469,0,0
1347646,469,0,0
1347646,470,0,0
1347647,471,0,0
1347647,471,0,0
1347647,472,0,0
1347648,472,0,0
1347648,476,0,0
1347648,474,0,0
1347648,474,0,0
1347649,475,0,0
1347649,476,0,0
1347649,475,0,0
1347650,480,0,0
1347650,478,0,0
1347650,478,0,0
1347650,480,0,0
1347651,484,0,0
1347651,481,0,0
1347651,483,0,0
1347652,483,0,0
1347652,487,0,0
1347652,484,0,0
1347653,484,0,0
1347653,485,0,0
1347653,485,0,0
1347653,484,0,0
1347654,486,0,0
1347654,485,0,0
1347654,485,0,0
1347655,484,0,0
1347655,484,0,0
1347655,484,0,0
1347655,484,0,0
1347656,488,0,0
1347656,483,0,0
1347656,487,0,0
1347657,487,0,0
1347657,484,0,0
1347657,481,0,0
1347658,485,0,0
1347658,480,0,0
1347658,479,0,0
1347658,478,0,0
1347659,481,0,0
1347659,477,0,0
1347659,478,0,0
1347660,476,0,0
1347660,476,0,0
1347660,477,0,0
1347661,476,0,0
1347661,481,0,0
1347661,478,0,0
1347661,476,0,0
1347662,477,0,0
1347662,479,0,0
1347662,482,0,0
1347663,478,0,0
1347663,479,0,0
1347663,484,0,0
1347663,480,0,0
1347664,481,0,0
1347664,482,0,0
1347664,482,0,0
1347665,484,0,0
1347665,484,0,0
1347665,489,0,0
1347666,487,0,0
1347666,489,0,0
1347666,487,0,0
1347666,489,0,0
1347667,489,0,0
1347667,488,0,0
1347667,489,0,0
1347668,492,0,0
1347668,494,0,0
1347668,495,0,0
1347669,492,0,0
1347669,493,0,0
1347669,492,0,0
1347669,493,0,0
1347670,494,0,0
1347670,493,0,0
1347720,502,0,0
1347720,501,0,0
1347721,505,0,0
1347721,502,0,0
1347721,503,0,0
1347722,501,0,0
1347722,501,0,0
1347722,501,0,0
1347722,500,0,0
1347723,504,0,0
1347723,499,0,0
1347723,499,0,0
1347724,498,0,0
1347724,502,0,0
1347724,496,0,0
1347724,499,0,0
1347725,494,0,0
1347725,497,0,0
1347725,494,0,0
1347726,496,0,0
1347726,491,0,0
1347726,491,0,0
1347727,491,0,0
1347727,492,0,0
1347727,490,0,0
1347727,496,0,0
1347728,491,0,0
1347728,489,0,0
1347728,491,0,0
1347729,490,0,0
1347729,491,0,0
1347729,490,0,0
1347730,491,0,0
1347730,496,0,0
1347730,493,0,0
1347730,492,0,0
1347731,493,0,0
1347731,494,0,0
1347731,493,0,0
1347732,494,0,0
1347732,501,0,0
1347732,500,0,0
1347733,496,0,0
1347733,497,0,0
1347733,498,0,0
1347733,498,0,0
1347734,503,0,0
1347734,498,0,0
1347734,501,0,0
1347735,502,0,0
1347735,500,0,0
1347735,500,0,0
1347735,500,0,0
1347736,503,0,0
1347736,500,0,0
1347736,502,0,0
1347737,500,0,0
1347737,503,0,0
1347737,501,0,0
1347738,500,0,0
1347738,505,0,0
1347738,500,0,0
1347738,500,0,0
1347739,499,0,0
1347739,499,0,0
1347739,499,0,0
1347740,498,0,0
1347740,501,0,0
1347740,495,0,0
1347741,500,0,0
1347741,501,0,0
1347741,495,0,0
1347741,496,0,0
1347742,492,0,0
1347742,492,0,0
1347742,492,0,0
1347743,491,0,0
1347743,491,0,0
1347743,490,0,0
1347743,490,0,0
1347744,489,0,0
1347744,490,0,0
1347744,494,0,0
1347745,493,0,0
1347745,492,0,0
1347745,490,0,0
1347746,491,0,0
1347746,491,0,0
1347746,491,0,0
1347746,493,0,0
1347747,493,0,0
1347747,493,0,0
1347747,494,0,0
1347748,496,0,0
1347748,495,0,0
1347748,496,0,0
1347749,496,0,0
1347749,499,0,0
1347749,499,0,0
1347749,501,0,0
1347844,532,0,0
1347844,528,0,0
1347845,531,0,0
1347845,528,0,0
1347845,530,0,0
1347846,525,0,0
1347846,527,0,0
1347846,526,0,0
1347847,525,0,0
1347847,526,0,0
1347847,526,0,0
1347848,525,0,0
1347848,529,0,0
1347848,526,0,0
1347848,527,0,0
1347849,525,0,0
1347849,525,0,0
1347849,524,0,0
1347850,529,0,0
1347850,525,0,0
1347850,525,0,0
1347850,526,0,0
1347851,524,0,0
1347851,527,0,0
1347851,523,0,0
1347852,523,0,0
1347852,526,0,0
1347852,523,0,0
1347853,524,0,0
1347853,523,0,0
1347853,520,0,0
1347853,521,0,0
1347854,520,0,0
1347854,522,0,0
1347854,519,0,0
1347855,519,0,0
1347855,519,0,0
1347855,517,0,0
1347856,521,0,0
1347856,517,0,0
1347856,515,0,0
1347856,514,0,0
1347857,513,0,0
1347857,513,0,0
1347857,515,0,0
1347858,509,0,0
1347858,509,0,0
1347858,507,0,0
1347859,507,0,0
1347859,505,0,0
1347859,507,0,0
1347859,506,0,0
1347860,503,0,0
1347860,507,0,0
1347860,503,0,0
1347861,506,0,0
1347861,502,0,0
1347861,502,0,0
1347861,501,0,0
1347862,504,0,0
1347862,500,0,0
1347862,501,0,0
1347863,501,0,0
1347863,502,0,0
1347863,501,0,0
1347864,500,0,0
1347864,501,0,0
1347864,505,0,0
1347864,507,0,0
1347865,502,0,0
1347865,502,0,0
1347865,502,0,0
1347866,504,0,0
1347866,503,0,0
1347866,504,0,0
1347866,507,0,0
1347867,508,0,0
1347867,506,0,0
1347867,508,0,0
1347868,504,0,0
1347868,505,0,0
1347868,504,0,0
1347869,504,0,0
1347869,504,0,0
1347869,504,0,0
1347869,504,0,0
1347870,506,0,0
1347870,503,0,0
1347870,504,0,0
1347871,505,0,0
1347871,506,0,0
1347871,503,0,0
1347872,505,0,0
1347872,500,0,0
1347872,499,0,0
1347872,500,0,0
1347873,499,0,0
1347873,499,0,0
1347873,497,0,0
1347874,498,0,0
1347919,494,0,0
1347919,495,0,0
1347919,495,0,0
1347920,499,0,0
1347920,495,0,0
1347920,499,0,0
1347921,495,0,0
1347921,496,0,0
1347921,496,0,0
1347921,496,0,0
1347922,496,0,0
1347922,499,0,0
1347922,495,0,0
1347923,495,0,0
1347923,494,0,0
1347923,494,0,0
1347924,493,0,0
1347924,492,0,0
1347924,491,0,0
1347924,492,0,0
1347925,493,0,0
1347925,493,0,0
1347925,489,0,0
1347926,489,0,0
1347926,488,0,0
1347926,488,0,0
1347927,486,0,0
1347927,491,0,0
1347927,487,0,0
1347927,486,0,0
1347928,486,0,0
1347928,491,0,0
1347928,489,0,0
1347929,487,0,0
1347929,486,0,0
1347929,488,0,0
1347930,491,0,0
1347930,491,0,0
1347930,493,0,0
1347930,490,0,0
1347931,491,0,0
1347931,490,0,0
1347931,492,0,0
1347932,492,0,0
1347932,492,0,0
1347932,493,0,0
1347933,495,0,0
1347933,499,0,0
1347933,499,0,0
1347933,497,0,0
1347934,498,0,0
1347934,498,0,0
1347934,498,0,0
1347935,502,0,0
1347935,499,0,0
1347935,499,0,0
1347935,505,0,0
1347936,503,0,0
1347936,505,0,0
1347936,503,0,0
1347937,501,0,0
1347937,501,0,0
1347937,501,0,0
1347938,502,0,0
1347938,502,0,0
1347938,505,0,0
1347938,501,0,0
1347939,506,0,0
1347939,503,0,0
1347939,502,0,0
1347940,504,0,0
1347940,500,0,0
1347940,503,0,0
1347941,499,0,0
1347941,496,0,0
1347941,496,0,0
1347941,498,0,0
1347942,498,0,0
1347942,493,0,0
1347942,493,0,0
1347943,492,0,0
1347943,491,0,0
1347943,490,0,0
1347944,495,0,0
1347944,490,0,0
1347944,494,0,0
1347944,493,0,0
1347945,488,0,0
1347945,492,0,0
1347945,488,0,0
1347946,488,0,0
1347946,490,0,0
1347946,491,0,0
1347946,490,0,0
1347947,491,0,0
1347947,493,0,0
1347947,489,0,0
1347948,489,0,0
1347948,490,0,0
1347948,494,0,0
1347998,505,0,0
1347998,501,0,0
1347999,501,0,0
1347999,502,0,0
1347999,502,0,0
1348000,506,0,0
1348000,501,0,0
1348000,502,0,0
1348001,502,0,0
1348001,505,0,0
1348001,503,0,0
1348001,502,0,0
1348002,502,0,0
1348002,502,0,0
1348002,503,0,0
1348003,501,0,0
1348003,503,0,0
1348003,503,0,0
1348004,503,0,0
1348004,503,0,0
1348004,506,0,0
1348004,502,0,0
1348005,503,0,0
1348005,504,0,0
1348005,503,0,0
1348006,502,0,0
1348006,501,0,0
1348006,505,0,0
1348006,501,0,0
1348007,501,0,0
1348007,505,0,0
1348007,500,0,0
1348008,500,0,0
1348008,504,0,0
1348008,501,0,0
1348009,502,0,0
1348009,501,0,0
1348009,500,0,0
1348009,504,0,0
1348010,501,0,0
1348010,501,0,0
1348010,501,0,0
1348011,501,0,0
1348011,503,0,0
1348011,506,0,0
1348012,507,0,0
1348012,503,0,0
1348012,504,0,0
1348012,507,0,0
1348013,506,0,0
1348013,505,0,0
1348013,506,0,0
1348014,510,0,0
1348014,507,0,0
1348014,508,0,0
1348014,508,0,0
1348015,512,0,0
1348015,513,0,0
1348015,511,0,0
1348016,509,0,0
1348016,513,0,0
1348016,510,0,0
1348017,511,0,0
1348017,512,0,0
1348017,513,0,0
1348017,511,0,0
1348018,513,0,0
1348018,518,0,0
1348018,512,0,0
1348019,513,0,0
1348019,513,0,0
1348019,515,0,0
1348020,514,0,0
1348020,519,0,0
1348020,514,0,0
1348020,514,0,0
1348021,515,0,0
1348021,513,0,0
1348021,512,0,0
1348022,512,0,0
1348022,515,0,0
1348022,510,0,0
1348022,509,0,0
1348023,508,0,0
1348023,507,0,0
1348023,507,0,0
1348024,505,0,0
1348024,505,0,0
1348024,508,0,0
1348025,505,0,0
1348025,501,0,0
1348025,501,0,0
1348025,499,0,0
1348026,500,0,0
1348026,499,0,0
1348026,503,0,0
1348027,498,0,0
1348027,498,0,0
1348027,500,0,0
1348027,497,0,0
1348119,505,0,0
1348120,505,0,0
1348120,506,0,0
1348120,510,0,0
1348121,506,0,0
1348121,509,0,0
1348121,505,0,0
1348122,505,0,0
1348122,508,0,0
1348122,505,0,0
1348123,506,0,0
1348123,509,0,0
1348123,509,0,0
1348123,505,0,0
1348124,504,0,0
1348124,505,0,0
1348124,503,0,0
1348125,501,0,0
1348125,499,0,0
1348125,499,0,0
1348126,497,0,0
1348126,497,0,0
1348126,499,0,0
1348126,499,0,0
1348127,495,0,0
1348127,496,0,0
1348127,499,0,0
1348128,498,0,0
1348128,494,0,0
1348128,494,0,0
1348128,494,0,0
1348129,494,0,0
1348129,495,0,0
1348129,497,0,0
1348130,495,0,0
1348130,500,0,0
1348130,496,0,0
1348131,496,0,0
1348131,501,0,0
1348131,501,0,0
1348131,499,0,0
1348132,499,0,0
1348132,500,0,0
1348132,500,0,0
1348133,501,0,0
1348133,502,0,0
1348133,503,0,0
1348134,504,0,0
1348134,504,0,0
1348134,505,0,0
1348134,505,0,0
1348135,510,0,0
1348135,511,0,0
1348135,507,0,0
1348136,507,0,0
1348136,508,0,0
1348136,509,0,0
1348136,509,0,0
1348137,513,0,0
1348137,509,0,0
1348137,509,0,0
1348138,513,0,0
1348138,513,0,0
1348138,508,0,0
1348139,509,0,0
1348139,511,0,0
1348139,507,0,0
1348139,506,0,0
1348140,505,0,0
1348140,507,0,0
1348140,503,0,0
1348141,502,0,0
1348141,501,0,0
1348141,500,0,0
1348141,499,0,0
1348142,498,0,0
1348142,499,0,0
1348142,497,0,0
1348143,499,0,0
1348143,495,0,0
1348143,499,0,0
1348144,495,0,0
1348144,494,0,0
1348144,498,0,0
1348144,498,0,0
1348145,497,0,0
1348145,495,0,0
1348145,498,0,0
1348146,495,0,0
1348146,496,0,0
1348146,495,0,0
1348146,497,0,0
1348147,498,0,0
1348147,497,0,0
1348147,502,0,0
1348148,503,0,0
1348148,501,0,0
1348148,501,0,0
1348149,501,0,0
1348149,501,0,0
1348196,500,0,0
1348196,498,0,0
1348196,498,0,0
1348197,504,0,0
1348197,504,0,0
1348197,501,0,0
1348198,503,0,0
1348198,507,0,0
1348198,507,0,0
1348199,505,0,0
1348199,505,0,0
1348199,510,0,0
1348199,507,0,0
1348200,507,0,0
1348200,509,0,0
1348200,511,0,0
1348201,514,0,0
1348201,511,0,0
1348201,516,0,0
1348202,512,0,0
1348202,517,0,0
1348202,515,0,0
1348202,515,0,0
1348203,515,0,0
1348203,515,0,0
1348203,515,0,0
1348204,518,0,0
1348204,516,0,0
1348204,515,0,0
1348205,514,0,0
1348205,513,0,0
1348205,514,0,0
1348205,513,0,0
1348206,513,0,0
1348206,515,0,0
1348206,512,0,0
1348207,509,0,0
1348207,508,0,0
1348207,507,0,0
1348208,506,0,0
1348208,509,0,0
1348208,504,0,0
1348208,504,0,0
1348209,505,0,0
1348209,502,0,0
1348209,504,0,0
1348210,503,0,0
1348210,502,0,0
1348210,501,0,0
1348210,504,0,0
1348211,501,0,0
1348211,500,0,0
1348211,502,0,0
1348212,501,0,0
1348212,502,0,0
1348212,501,0,0
1348213,500,0,0
1348213,501,0,0
1348213,505,0,0
1348213,503,0,0
1348214,502,0,0
1348214,507,0,0
1348214,505,0,0
1348215,506,0,0
1348215,504,0,0
1348215,510,0,0
1348216,507,0,0
1348216,506,0,0
1348216,507,0,0
1348216,507,0,0
1348217,507,0,0
1348217,509,0,0
1348217,510,0,0
1348218,511,0,0
1348218,511,0,0
1348218,517,0,0
1348218,513,0,0
1348219,515,0,0
1348219,521,0,0
1348219,519,0,0
1348220,521,0,0
1348220,518,0,0
1348220,519,0,0
1348221,520,0,0
1348221,522,0,0
1348221,527,0,0
1348221,523,0,0
1348222,522,0,0
1348222,524,0,0
1348222,524,0,0
1348223,527,0,0
1348223,525,0,0
1348223,526,0,0
1348224,529,0,0
1348224,525,0,0
1348224,525,0,0
1348224,527,0,0
1348225,524,0,0
1348225,525,0,0
1348225,524,0,0
1348320,505,0,0
1348320,507,0,0
1348321,504,0,0
1348321,505,0,0
1348321,505,0,0
1348321,504,0,0
1348322,505,0,0
1348322,503,0,0
1348322,507,0,0
1348323,501,0,0
1348323,502,0,0
1348323,504,0,0
1348324,502,0,0
1348324,501,0,0
1348324,496,0,0
1348324,495,0,0
1348325,493,0,0
1348325,493,0,0
1348325,489,0,0
1348326,489,0,0
1348326,492,0,0
1348326,489,0,0
1348326,484,0,0
1348327,483,0,0
1348327,482,0,0
1348327,481,0,0
1348328,479,0,0
1348328,478,0,0
1348328,476,0,0
1348329,475,0,0
1348329,476,0,0
1348329,475,0,0
1348329,473,0,0
1348330,472,0,0
1348330,471,0,0
1348330,474,0,0
1348331,471,0,0
1348331,476,0,0
1348331,471,0,0
1348332,470,0,0
1348332,470,0,0
1348332,469,0,0
1348332,475,0,0
1348333,470,0,0
1348333,474,0,0
1348333,471,0,0
1348334,472,0,0
1348334,472,0,0
1348334,474,0,0
1348334,476,0,0
1348335,475,0,0
1348335,476,0,0
1348335,478,0,0
1348336,480,0,0
1348336,480,0,0
1348336,482,0,0
1348337,484,0,0
1348337,485,0,0
1348337,487,0,0
1348337,489,0,0
1348338,491,0,0
1348338,494,0,0
1348338,497,0,0
1348339,499,0,0
1348339,502,0,0
1348339,507,0,0
1348340,512,0,0
1348340,513,0,0
1348340,516,0,0
1348340,520,0,0
1348341,525,0,0
1348341,529,0,0
1348341,534,0,0
1348342,543,0,0
1348342,544,0,0
1348342,550,0,0
1348343,555,0,0
1348343,562,0,0
1348343,566,0,0
1348343,574,0,0
1348344,580,0,0
1348344,586,0,0
1348344,593,0,0
1348345,600,0,0
1348345,608,0,0
1348345,614,0,0
1348345,626,0,0
1348346,630,0,0
1348346,644,0,0
1348346,651,0,0
1348347,656,0,0
1348347,665,0,0
1348347,673,0,0
1348348,682,0,0
1348348,690,0,0
1348348,699,0,0
1348348,708,0,0
1348349,717,0,0
