time_ms,reading,bpm,leads_off
6752,568,0,0
6755,597,0,0
6757,535,0,0
6760,462,0,0
6762,445,0,0
6765,476,0,0
6767,531,0,0
6770,582,0,0
6772,579,0,0
6775,501,0,0
6777,447,0,0
6780,447,0,0
6782,496,0,0
6785,554,0,0
6787,598,0,0
6790,553,0,0
6792,469,0,0
6795,426,0,0
6797,435,0,0
6800,481,0,0
6802,544,0,0
6805,577,0,0
6807,535,0,0
6810,504,0,0
6812,538,0,0
6815,638,0,0
6817,769,0,0
6820,895,0,0
6822,953,0,0
6825,932,0,0
6827,904,0,0
6830,877,0,0
6832,857,0,0
6835,808,0,0
6837,733,0,0
6840,583,0,0
6842,426,0,0
6845,361,0,0
6847,392,0,0
6850,482,0,0
6852,584,0,0
6855,639,0,0
6857,583,0,0
6860,510,0,0
6862,476,0,0
6865,485,0,0
6867,523,0,0
6870,563,0,0
6872,543,0,0
6875,467,0,0
6877,415,0,0
6880,422,0,0
6882,471,0,0
6885,533,0,0
6887,573,0,0
6890,527,0,0
6892,451,0,0
6895,419,0,0
6897,441,0,0
6900,487,0,0
6902,545,0,0
6905,564,0,0
6907,495,0,0
6910,435,0,0
6912,421,0,0
6915,455,0,0
6917,517,0,0
6920,569,0,0
6922,555,0,0
6925,476,0,0
6927,426,0,0
6930,431,0,0
6932,479,0,0
6935,541,0,0
6937,583,0,0
6940,537,0,0
6942,457,0,0
6945,424,0,0
6947,448,0,0
6950,504,0,0
6952,562,0,0
6955,575,0,0
6957,503,0,0
6960,439,0,0
6962,428,0,0
6965,468,0,0
6967,534,0,0
6970,589,0,0
6972,562,0,0
6975,478,0,0
6977,431,0,0
6980,446,0,0
6983,493,0,0
6985,555,0,0
6988,593,0,0
6990,540,0,0
6993,467,0,0
6995,438,0,0
6998,459,0,0
7000,519,0,0
7003,582,0,0
7005,589,0,0
7008,516,0,0
7010,452,0,0
7013,447,0,0
7015,494,0,0
7018,557,0,0
7020,608,0,0
7023,585,0,0
7025,507,0,0
7028,461,0,0
7030,473,0,0
7033,532,0,0
7035,592,0,0
7038,627,0,0
7040,572,0,0
7043,496,0,0
7045,469,0,0
7048,501,0,0
7050,566,0,0
7053,621,0,0
7055,629,0,0
7058,555,0,0
7060,489,0,0
7063,484,0,0
7065,524,0,0
7068,583,0,0
7070,632,0,0
7073,601,0,0
7075,519,0,0
7078,470,0,0
7080,477,0,0
7083,525,0,0
7085,577,0,0
7088,603,0,0
7090,536,0,0
7093,459,0,0
7095,427,0,0
7098,453,0,0
7100,515,0,0
7103,567,0,0
7105,567,0,0
7108,484,0,0
7110,424,0,0
7113,413,0,0
7115,458,0,0
7118,514,0,0
7120,563,0,0
7123,529,0,0
7125,447,0,0
7128,404,0,0
7130,419,0,0
7133,468,0,0
7135,529,0,0
7138,561,0,0
7140,497,0,0
7143,422,0,0
7145,401,0,0
7148,428,0,0
7150,491,0,0
7153,550,0,0
7155,549,0,0
7158,471,0,0
7160,411,0,0
7163,414,0,0
7165,455,0,0
7168,516,0,0
7170,565,0,0
7173,529,0,0
7175,450,0,0
7178,418,0,0
7180,432,0,0
7183,485,0,0
7185,544,0,0
7188,569,0,0
7190,503,0,0
7193,430,0,0
7195,412,0,0
7198,444,0,0
7200,505,0,0
7203,564,0,0
7205,562,0,0
7208,483,0,0
7210,423,0,0
7213,419,0,0
7215,463,0,0
7218,525,0,0
7220,573,0,0
7223,531,0,0
7225,452,0,0
7228,419,0,0
7230,435,0,0
7233,492,0,0
7235,554,0,0
7238,577,0,0
7240,515,0,0
7243,443,0,0
7246,423,0,0
7248,460,0,0
7251,523,0,0
7253,578,0,0
7256,571,0,0
7258,485,0,0
7261,431,0,0
7263,431,0,0
7266,476,0,0
7268,536,0,0
7271,582,0,0
7273,541,0,0
7276,458,0,0
7278,423,0,0
7281,448,0,0
7283,502,0,0
7286,562,0,0
7288,585,0,0
7291,510,0,0
7293,441,0,0
7296,426,0,0
7298,464,0,0
7301,520,0,0
7303,579,0,0
7306,562,0,0
7308,480,0,0
7311,430,0,0
7313,429,0,0
7316,478,0,0
7318,544,0,0
7321,591,0,0
7323,549,0,0
7326,465,0,0
7328,428,0,0
7331,452,0,0
7333,504,0,0
7336,562,0,0
7338,578,0,0
7341,507,0,0
7343,441,0,0
7346,424,0,0
7348,465,0,0
7351,528,0,0
7353,583,0,0
7356,564,0,0
7358,478,0,0
7361,429,0,0
7363,435,0,0
7366,486,0,0
7368,546,0,0
7371,588,0,0
7373,537,0,0
7376,453,0,0
7378,420,0,0
7381,444,0,0
7383,504,0,0
7386,566,0,0
7388,584,0,0
7391,505,0,0
7393,440,0,0
7396,429,0,0
7398,469,0,0
7401,532,0,0
7403,588,0,0
7406,566,0,0
7408,481,0,0
7411,425,0,0
7413,435,0,0
7416,482,0,0
7418,547,0,0
7421,587,0,0
7423,534,0,0
7426,459,0,0
7428,430,0,0
7431,456,0,0
7433,512,0,0
7436,571,0,0
7438,581,0,0
7441,508,0,0
7443,441,0,0
7446,434,0,0
7448,475,0,0
7451,537,0,0
7453,591,0,0
7456,560,0,0
7458,473,0,0
7461,424,0,0
7463,434,0,0
7466,489,0,0
7468,555,0,0
7471,595,0,0
7473,534,0,0
7476,451,0,0
7478,420,0,0
7481,449,0,0
7483,513,0,0
7486,574,0,0
7488,584,0,0
7491,500,0,0
7493,437,0,0
7496,427,0,0
7498,472,0,0
7501,541,0,0
7503,591,0,0
7506,561,0,0
7508,477,0,0
7511,430,0,0
7513,442,0,0
7516,500,0,0
7519,562,0,0
7521,599,0,0
7524,537,0,0
7526,460,0,0
7529,434,0,0
7531,465,0,0
7534,526,0,0
7536,586,0,0
7539,586,0,0
7541,503,0,0
7544,440,0,0
7546,433,0,0
7549,480,0,0
7551,545,0,0
7554,594,0,0
7556,562,0,0
7559,478,0,0
7561,431,0,0
7564,448,0,0
7566,503,0,0
7569,563,0,0
7571,597,0,0
7574,534,0,0
7576,458,0,0
7579,433,0,0
7581,465,0,0
7584,530,0,0
7586,592,0,0
7589,595,0,0
7591,518,0,0
7594,459,0,0
7596,452,0,0
7599,498,0,0
7601,564,0,0
7604,618,0,0
7606,575,0,0
7609,483,0,0
7611,438,0,0
7614,448,0,0
7616,506,0,0
7619,567,0,0
7621,599,0,0
7624,541,0,0
7626,471,0,0
7629,456,0,0
7631,486,0,0
7634,545,0,0
7636,602,0,0
7639,588,0,0
7641,501,0,0
7644,441,0,0
7646,437,0,0
7649,483,0,0
7651,551,0,0
7654,601,0,0
7656,565,0,0
7659,478,0,0
7661,432,0,0
7664,449,0,0
7666,503,0,0
7669,562,0,0
7671,591,0,0
7674,519,0,0
7676,443,0,0
7679,426,0,0
7681,463,0,0
7684,526,0,0
7686,585,0,0
7689,576,0,0
7691,495,0,0
7694,431,0,0
7696,423,0,0
7699,458,0,0
7701,519,0,0
7704,571,0,0
7706,529,0,0
7709,464,0,0
7711,454,0,0
7714,520,0,0
7716,636,0,0
7719,777,0,0
7721,870,0,0
7724,866,0,0
7726,861,0,0
7729,886,0,0
7731,922,0,0
7734,940,0,0
7736,907,0,0
7739,769,0,0
7741,564,0,0
7744,412,0,0
7746,369,0,0
7749,418,0,0
7751,511,0,0
7754,599,0,0
7756,589,0,0
7759,529,0,0
7761,492,0,0
7764,501,0,0
7766,535,0,0
7769,576,0,0
7771,578,0,0
7774,493,0,0
7776,417,0,0
7779,404,0,0
7781,445,0,0
7784,515,0,0
7787,571,0,0
7789,554,0,0
7792,467,0,0
7794,419,0,0
7797,421,0,0
7799,476,0,0
7802,538,0,0
7804,583,0,0
7807,523,0,0
7809,441,0,0
7812,407,0,0
7814,437,0,0
7817,493,0,0
7819,558,0,0
7822,578,0,0
7824,502,0,0
7827,430,0,0
7829,415,0,0
7832,462,0,0
7834,523,0,0
7837,581,0,0
7839,560,0,0
7842,475,0,0
7844,422,0,0
7847,429,0,0
7849,489,0,0
7852,553,0,0
7854,595,0,0
7857,536,0,0
7859,453,0,0
7862,419,0,0
7864,445,0,0
7867,510,0,0
7869,578,0,0
7872,589,0,0
7874,508,0,0
7877,440,0,0
7879,432,0,0
7882,469,0,0
7884,535,0,0
7887,594,0,0
7889,575,0,0
7892,491,0,0
7894,438,0,0
7897,448,0,0
7899,502,0,0
7902,568,0,0
7904,606,0,0
7907,552,0,0
7909,470,0,0
7912,449,0,0
7914,478,0,0
7917,545,0,0
7919,606,0,0
7922,616,0,0
7924,536,0,0
7927,469,0,0
7929,465,0,0
7932,508,0,0
7934,579,0,0
7937,634,0,0
7939,601,0,0
7942,518,0,0
7944,466,0,0
7947,483,0,0
7949,546,0,0
7952,612,0,0
7954,650,0,0
7957,585,0,0
7959,508,0,0
7962,480,0,0
7964,513,0,0
7967,571,0,0
7969,634,0,0
7972,633,0,0
7974,552,0,0
7977,483,0,0
7979,469,0,0
7982,508,0,0
7984,568,0,0
7987,622,0,0
7989,575,0,0
7992,486,0,0
7994,432,0,0
7997,442,0,0
7999,497,0,0
8002,560,0,0
8004,590,0,0
8007,519,0,0
8009,436,0,0
8012,409,0,0
8014,439,0,0
8017,503,0,0
8019,569,0,0
8022,565,0,0
8024,477,0,0
8027,413,0,0
8029,408,0,0
8032,454,0,0
8034,523,0,0
8037,579,0,0
8039,536,0,0
8042,451,0,0
8044,412,0,0
8047,424,0,0
8049,482,0,0
8052,545,0,0
8055,572,0,0
8057,507,0,0
8060,427,0,0
8062,406,0,0
8065,441,0,0
8067,505,0,0
8070,567,0,0
8072,562,0,0
8075,477,0,0
8077,417,0,0
8080,411,0,0
8082,465,0,0
8085,531,0,0
8087,583,0,0
8090,541,0,0
8092,455,0,0
8095,413,0,0
8097,429,0,0
8100,491,0,0
8102,553,0,0
8105,583,0,0
8107,511,0,0
8110,436,0,0
8112,420,0,0
8115,449,0,0
8117,514,0,0
8120,576,0,0
8122,568,0,0
8125,482,0,0
8127,424,0,0
8130,421,0,0
8132,476,0,0
8135,541,0,0
8137,592,0,0
8140,547,0,0
8142,458,0,0
8145,423,0,0
8147,438,0,0
8150,498,0,0
8152,565,0,0
8155,587,0,0
8157,513,0,0
8160,440,0,0
8162,425,0,0
8165,464,0,0
8167,525,0,0
8170,584,0,0
8172,567,0,0
8175,483,0,0
8177,427,0,0
8180,430,0,0
8182,481,0,0
8185,548,0,0
8187,597,0,0
8190,544,0,0
8192,454,0,0
8195,416,0,0
8197,441,0,0
8200,504,0,0
8202,571,0,0
8205,589,0,0
8207,512,0,0
8210,445,0,0
8212,425,0,0
8215,465,0,0
8217,528,0,0
8220,591,0,0
8222,569,0,0
8225,485,0,0
8227,429,0,0
8230,432,0,0
8232,486,0,0
8235,552,0,0
8237,601,0,0
8240,547,0,0
8242,460,0,0
8245,423,0,0
8247,450,0,0
8250,506,0,0
8252,575,0,0
8255,589,0,0
8257,509,0,0
8260,439,0,0
8262,422,0,0
8265,465,0,0
8267,526,0,0
8270,585,0,0
8272,570,0,0
8275,479,0,0
8277,427,0,0
8280,434,0,0
8282,487,0,0
8285,558,0,0
8287,598,0,0
8290,542,0,0
8292,461,0,0
8295,427,0,0
8297,450,0,0
8300,509,0,0
8302,575,0,0
8305,587,0,0
8307,506,0,0
8310,437,0,0
8312,425,0,0
8315,472,0,0
8317,533,0,0
8320,592,0,0
8322,569,0,0
8325,482,0,0
8327,432,0,0
8330,438,0,0
8332,492,0,0
8335,564,0,0
8338,604,0,0
8340,543,0,0
8343,455,0,0
8345,425,0,0
8348,453,0,0
8350,517,0,0
8353,584,0,0
8355,592,0,0
8358,511,0,0
8360,444,0,0
8363,437,0,0
8365,480,0,0
8368,548,0,0
8370,604,0,0
8373,570,0,0
8375,484,0,0
8378,434,0,0
8380,441,0,0
8383,500,0,0
8385,567,0,0
8388,607,0,0
8390,549,0,0
8393,464,0,0
8395,437,0,0
8398,466,0,0
8400,527,0,0
8403,588,0,0
8405,590,0,0
8408,509,0,0
8410,443,0,0
8413,441,0,0
8415,487,0,0
8418,552,0,0
8420,602,0,0
8423,566,0,0
8425,479,0,0
8428,434,0,0
8430,451,0,0
8433,513,0,0
8435,576,0,0
8438,609,0,0
8440,542,0,0
8443,460,0,0
8445,438,0,0
8448,472,0,0
8450,544,0,0
8453,609,0,0
8455,612,0,0
8458,523,0,0
8460,454,0,0
8463,442,0,0
8465,487,0,0
8468,549,0,0
8470,598,0,0
8473,559,0,0
8475,472,0,0
8478,429,0,0
8480,454,0,0
8483,524,0,0
8485,591,0,0
8488,621,0,0
8490,543,0,0
8493,458,0,0
8495,432,0,0
8498,468,0,0
8500,529,0,0
8503,597,0,0
8505,597,0,0
8508,510,0,0
8510,449,0,0
8513,447,0,0
8515,494,0,0
8518,554,0,0
8520,610,0,0
8523,564,0,0
8525,479,0,0
8528,434,0,0
8530,453,0,0
8533,515,0,0
8535,578,0,0
8538,605,0,0
8540,534,0,0
8543,465,0,0
8545,442,0,0
8548,474,0,0
8554,580,0,0
8557,510,0,0
8559,435,0,0
8562,421,0,0
8564,479,0,0
8567,576,0,0
8569,690,0,0
8572,753,0,0
8574,748,0,0
8577,758,0,0
8579,824,0,0
8582,934,0,0
8584,1002,0,0
8587,1013,0,0
8589,938,0,0
8592,757,0,0
8594,593,0,0
8597,492,0,0
8599,474,0,0
8602,507,0,0
8604,547,0,0
8607,514,0,0
8609,476,0,0
8612,488,0,0
8614,537,0,0
8617,590,0,0
8620,636,0,0
8622,604,0,0
8625,497,0,0
8627,422,0,0
8630,419,0,0
8632,466,0,0
8635,534,0,0
8637,585,0,0
8640,543,0,0
8642,463,0,0
8645,417,0,0
8647,437,0,0
8650,497,0,0
8652,559,0,0
8655,585,0,0
8657,514,0,0
8660,444,0,0
8662,422,0,0
8665,459,0,0
8667,526,0,0
8670,584,0,0
8672,572,0,0
8675,493,0,0
8677,437,0,0
8680,434,0,0
8682,482,0,0
8685,549,0,0
8687,598,0,0
8690,550,0,0
8692,468,0,0
8695,432,0,0
8697,458,0,0
8700,515,0,0
8702,577,0,0
8705,601,0,0
8707,527,0,0
8710,453,0,0
8712,440,0,0
8715,475,0,0
8717,533,0,0
8720,591,0,0
8722,578,0,0
8725,498,0,0
8727,443,0,0
8730,450,0,0
8732,501,0,0
8735,566,0,0
8737,608,0,0
8740,556,0,0
8742,476,0,0
8745,445,0,0
8747,468,0,0
8750,528,0,0
8752,591,0,0
8755,608,0,0
8757,537,0,0
8760,468,0,0
8762,460,0,0
8765,499,0,0
8767,566,0,0
8770,622,0,0
8772,607,0,0
8775,523,0,0
8777,474,0,0
8780,483,0,0
8782,533,0,0
8785,600,0,0
8787,642,0,0
8790,591,0,0
8792,515,0,0
8795,479,0,0
8797,508,0,0
8800,566,0,0
8802,634,0,0
8805,647,0,0
8807,575,0,0
8810,503,0,0
8812,492,0,0
8815,534,0,0
8817,597,0,0
8820,653,0,0
8822,630,0,0
8825,550,0,0
8827,493,0,0
8830,496,0,0
8832,540,0,0
8835,597,0,0
8837,630,0,0
8840,565,0,0
8842,483,0,0
8845,450,0,0
8847,475,0,0
8850,533,0,0
8852,589,0,0
8855,593,0,0
8857,512,0,0
8860,448,0,0
8862,433,0,0
8865,474,0,0
8867,532,0,0
8870,589,0,0
8872,559,0,0
8875,479,0,0
8877,426,0,0
8880,439,0,0
8882,486,0,0
8885,545,0,0
8887,579,0,0
8890,521,0,0
8892,446,0,0
8895,421,0,0
8898,446,0,0
8900,509,0,0
8903,567,0,0
8905,570,0,0
8908,490,0,0
8910,431,0,0
8913,418,0,0
8915,464,0,0
8918,527,0,0
8920,574,0,0
8923,544,0,0
8925,466,0,0
8928,423,0,0
8930,434,0,0
8933,484,0,0
8935,550,0,0
8938,585,0,0
8940,521,0,0
8943,448,0,0
8945,425,0,0
8948,453,0,0
8950,511,0,0
8953,576,0,0
8955,577,0,0
8958,495,0,0
8960,437,0,0
8963,431,0,0
8965,476,0,0
8968,540,0,0
8970,591,0,0
8973,556,0,0
8975,474,0,0
8978,428,0,0
8980,445,0,0
8983,500,0,0
8985,560,0,0
8988,588,0,0
8990,525,0,0
8993,453,0,0
8995,435,0,0
8998,467,0,0
9000,529,0,0
9003,584,0,0
9005,579,0,0
9008,491,0,0
9010,432,0,0
9013,433,0,0
9015,478,0,0
9018,544,0,0
9020,592,0,0
9023,551,0,0
9025,471,0,0
9028,429,0,0
9030,442,0,0
9033,496,0,0
9035,560,0,0
9038,591,0,0
9040,522,0,0
9043,449,0,0
9045,431,0,0
9048,460,0,0
9050,519,0,0
9053,580,0,0
9055,569,0,0
9058,489,0,0
9060,434,0,0
9063,440,0,0
9065,481,0,0
9068,547,0,0
9070,594,0,0
9073,554,0,0
9075,473,0,0
9078,438,0,0
9080,453,0,0
9083,508,0,0
9085,571,0,0
9088,594,0,0
9090,527,0,0
9093,460,0,0
9095,438,0,0
9098,471,0,0
9100,531,0,0
9103,589,0,0
9105,574,0,0
9108,492,0,0
9110,441,0,0
9113,442,0,0
9115,493,0,0
9118,559,0,0
9120,604,0,0
9123,557,0,0
9125,481,0,0
9128,440,0,0
9130,457,0,0
9133,508,0,0
9135,572,0,0
9138,590,0,0
9140,524,0,0
9143,457,0,0
9145,444,0,0
9148,478,0,0
9150,538,0,0
9153,589,0,0
9155,572,0,0
9158,491,0,0
9161,445,0,0
9163,448,0,0
9166,499,0,0
9168,560,0,0
9171,602,0,0
9173,549,0,0
9176,475,0,0
9178,440,0,0
9181,461,0,0
9183,521,0,0
9186,580,0,0
9188,600,0,0
9191,524,0,0
9193,458,0,0
9196,446,0,0
9198,479,0,0
9201,542,0,0
9203,598,0,0
9206,576,0,0
9208,495,0,0
9211,448,0,0
9213,452,0,0
9216,502,0,0
9218,559,0,0
9221,600,0,0
9223,543,0,0
9226,468,0,0
9228,443,0,0
9231,472,0,0
9233,525,0,0
9236,584,0,0
9238,593,0,0
9241,518,0,0
9243,455,0,0
9246,450,0,0
9248,485,0,0
9251,547,0,0
9253,599,0,0
9256,568,0,0
9258,493,0,0
9261,451,0,0
9263,467,0,0
9266,524,0,0
9268,587,0,0
9271,625,0,0
9273,568,0,0
9276,486,0,0
9278,455,0,0
9281,469,0,0
9283,522,0,0
9286,581,0,0
9288,587,0,0
9291,517,0,0
9293,462,0,0
9296,463,0,0
9298,511,0,0
9301,571,0,0
9303,620,0,0
9306,595,0,0
9308,504,0,0
9311,454,0,0
9313,457,0,0
9316,501,0,0
9318,561,0,0
9321,600,0,0
9323,545,0,0
9326,472,0,0
9328,450,0,0
9331,478,0,0
9333,528,0,0
9336,583,0,0
9338,583,0,0
9341,506,0,0
9343,449,0,0
9346,445,0,0
9348,487,0,0
9351,549,0,0
9353,595,0,0
9356,565,0,0
9358,485,0,0
9361,443,0,0
9363,454,0,0
9366,497,0,0
9368,547,0,0
9371,572,0,0
9373,506,0,0
9376,441,0,0
9378,436,0,0
9381,496,0,0
9383,598,0,0
9386,717,0,0
9388,788,0,0
9391,785,0,0
9393,793,0,0
9396,855,0,0
9398,946,0,0
9401,1003,0,0
9403,1000,0,0
9406,883,0,0
9408,685,0,0
9411,519,0,0
9413,439,0,0
9416,438,0,0
9418,493,0,0
9421,554,0,0
9424,530,0,0
9426,499,0,0
9429,506,0,0
9431,534,0,0
9434,573,0,0
9436,609,0,0
9439,581,0,0
9441,486,0,0
9444,426,0,0
9446,418,0,0
9449,461,0,0
9451,524,0,0
9454,579,0,0
9456,539,0,0
9459,459,0,0
9461,426,0,0
9464,436,0,0
9466,489,0,0
9469,549,0,0
9471,573,0,0
9474,508,0,0
9476,438,0,0
9479,425,0,0
9481,453,0,0
9484,511,0,0
9486,569,0,0
9489,558,0,0
9491,483,0,0
9494,437,0,0
9496,434,0,0
9499,477,0,0
9501,537,0,0
9504,580,0,0
9506,541,0,0
9509,465,0,0
9511,428,0,0
9514,447,0,0
9516,497,0,0
9519,558,0,0
9521,582,0,0
9524,516,0,0
9526,448,0,0
9529,436,0,0
9531,467,0,0
9534,520,0,0
9536,577,0,0
9539,568,0,0
9541,491,0,0
9544,443,0,0
9546,449,0,0
9549,493,0,0
9551,552,0,0
9554,594,0,0
9556,550,0,0
9559,479,0,0
9561,444,0,0
9564,466,0,0
9566,520,0,0
9569,577,0,0
9571,594,0,0
9574,531,0,0
9576,465,0,0
9579,456,0,0
9581,487,0,0
9584,546,0,0
9586,605,0,0
9589,590,0,0
9591,516,0,0
9594,468,0,0
9596,478,0,0
9599,528,0,0
9601,585,0,0
9604,629,0,0
9606,577,0,0
9609,504,0,0
9611,478,0,0
9614,497,0,0
9616,556,0,0
9619,611,0,0
9621,628,0,0
9624,556,0,0
9626,496,0,0
9629,489,0,0
9631,529,0,0
9634,587,0,0
9636,632,0,0
9639,609,0,0
9641,532,0,0
9644,480,0,0
9646,487,0,0
9649,530,0,0
9651,582,0,0
9654,613,0,0
9656,556,0,0
9659,472,0,0
9661,441,0,0
9664,458,0,0
9666,511,0,0
9669,561,0,0
9671,569,0,0
9674,494,0,0
9677,431,0,0
9679,425,0,0
9682,458,0,0
9684,518,0,0
9687,567,0,0
9689,537,0,0
9692,466,0,0
9694,415,0,0
9697,424,0,0
9699,467,0,0
9702,524,0,0
9704,559,0,0
9707,505,0,0
9709,433,0,0
9712,405,0,0
9714,428,0,0
9717,488,0,0
9719,542,0,0
9722,552,0,0
9724,482,0,0
9727,423,0,0
9729,418,0,0
9732,454,0,0
9734,508,0,0
9737,559,0,0
9739,527,0,0
9742,451,0,0
9744,409,0,0
9747,421,0,0
9749,469,0,0
9752,530,0,0
9754,566,0,0
9757,509,0,0
9759,441,0,0
9762,417,0,0
9764,444,0,0
9767,503,0,0
9769,556,0,0
9772,557,0,0
9774,486,0,0
9777,431,0,0
9779,432,0,0
9782,466,0,0
9784,524,0,0
9787,572,0,0
9789,537,0,0
9792,458,0,0
9794,419,0,0
9797,433,0,0
9799,485,0,0
9802,543,0,0
9804,577,0,0
9807,514,0,0
9809,445,0,0
9812,422,0,0
9814,449,0,0
9817,505,0,0
9819,564,0,0
9822,555,0,0
9824,476,0,0
9827,421,0,0
9829,418,0,0
9832,458,0,0
9834,520,0,0
9837,564,0,0
9839,526,0,0
9842,449,0,0
9844,414,0,0
9847,430,0,0
9849,479,0,0
9852,537,0,0
9854,566,0,0
9857,501,0,0
9859,432,0,0
9862,420,0,0
9864,446,0,0
9867,501,0,0
9869,557,0,0
9872,552,0,0
9874,480,0,0
9877,423,0,0
9879,427,0,0
9882,469,0,0
9884,530,0,0
9887,572,0,0
9889,535,0,0
9892,462,0,0
9894,425,0,0
9897,442,0,0
9899,495,0,0
9902,553,0,0
9904,581,0,0
9907,519,0,0
9909,453,0,0
9912,434,0,0
9914,459,0,0
9917,517,0,0
9919,569,0,0
9922,560,0,0
9924,484,0,0
9927,432,0,0
9929,435,0,0
9932,480,0,0
9934,536,0,0
9937,579,0,0
9939,538,0,0
9942,459,0,0
9944,426,0,0
9947,448,0,0
9949,495,0,0
9952,554,0,0
9954,577,0,0
9957,512,0,0
9960,449,0,0
9962,435,0,0
9965,465,0,0
9967,522,0,0
9970,573,0,0
9972,564,0,0
9975,486,0,0
9977,439,0,0
9980,438,0,0
9982,486,0,0
9985,542,0,0
9987,580,0,0
9990,532,0,0
9992,455,0,0
9995,427,0,0
9997,443,0,0
10000,496,0,0
10002,551,0,0
10005,570,0,0
10007,504,0,0
10010,440,0,0
10012,427,0,0
10015,455,0,0
10017,512,0,0
10020,563,0,0
10022,550,0,0
10025,474,0,0
10027,426,0,0
10030,434,0,0
10032,484,0,0
10035,538,0,0
10037,578,0,0
10040,533,0,0
10042,461,0,0
10045,433,0,0
10047,458,0,0
10050,512,0,0
10052,572,0,0
10055,592,0,0
10057,524,0,0
10060,460,0,0
10062,453,0,0
10065,483,0,0
10067,537,0,0
10070,585,0,0
10072,562,0,0
10075,489,0,0
10077,451,0,0
10080,464,0,0
10082,517,0,0
10085,579,0,0
10087,615,0,0
10090,559,0,0
10092,480,0,0
10095,450,0,0
10097,469,0,0
10100,518,0,0
10102,573,0,0
10105,583,0,0
10107,514,0,0
10110,459,0,0
10112,449,0,0
10115,480,0,0
10117,533,0,0
10120,581,0,0
10122,557,0,0
10125,484,0,0
10127,435,0,0
10130,444,0,0
10132,490,0,0
10135,547,0,0
10137,579,0,0
10140,529,0,0
10142,460,0,0
10145,441,0,0
10147,462,0,0
10150,513,0,0
10152,561,0,0
10155,557,0,0
10157,479,0,0
10160,421,0,0
10162,421,0,0
10165,479,0,0
10167,563,0,0
10170,655,0,0
10172,686,0,0
10175,684,0,0
10177,715,0,0
10180,795,0,0
10182,909,0,0
10185,1009,0,0
10187,1006,0,0
10190,948,0,0
10192,802,0,0
10195,657,0,0
10197,561,0,0
10200,517,0,0
10202,517,0,0
10205,506,0,0
10207,458,0,0
10210,442,0,0
10212,485,0,0
10215,546,0,0
10217,604,0,0
10220,638,0,0
10223,582,0,0
10225,484,0,0
10228,428,0,0
10230,429,0,0
10233,472,0,0
10235,534,0,0
10238,566,0,0
10240,510,0,0
10243,445,0,0
10245,427,0,0
10248,452,0,0
10250,501,0,0
10253,560,0,0
10255,557,0,0
10258,489,0,0
10260,434,0,0
10263,432,0,0
10265,473,0,0
10268,528,0,0
10270,575,0,0
10273,539,0,0
10275,469,0,0
10278,430,0,0
10280,446,0,0
10283,492,0,0
10285,552,0,0
10288,576,0,0
10290,511,0,0
10293,447,0,0
10295,428,0,0
10298,460,0,0
10300,512,0,0
10303,569,0,0
10305,564,0,0
10308,493,0,0
10310,439,0,0
10313,439,0,0
10315,477,0,0
10318,534,0,0
10320,582,0,0
10323,544,0,0
10325,471,0,0
10328,435,0,0
10330,453,0,0
10333,506,0,0
10335,563,0,0
10338,586,0,0
10340,528,0,0
10343,459,0,0
10345,448,0,0
10348,479,0,0
10350,531,0,0
10353,584,0,0
10355,579,0,0
10358,511,0,0
10360,465,0,0
10363,469,0,0
10365,507,0,0
10368,565,0,0
10370,611,0,0
10373,571,0,0
10375,497,0,0
10378,465,0,0
10380,483,0,0
10383,535,0,0
10385,591,0,0
10388,618,0,0
10390,555,0,0
10393,497,0,0
10395,482,0,0
10398,515,0,0
10400,573,0,0
10403,626,0,0
10405,616,0,0
10408,543,0,0
10410,493,0,0
10413,493,0,0
10415,535,0,0
10418,593,0,0
10420,639,0,0
10423,595,0,0
10425,523,0,0
10428,487,0,0
10430,501,0,0
10433,549,0,0
10435,598,0,0
10438,612,0,0
10440,543,0,0
10443,469,0,0
10445,457,0,0
10448,483,0,0
10450,532,0,0
10453,584,0,0
10455,571,0,0
10458,491,0,0
10460,442,0,0
10463,443,0,0
10465,487,0,0
10468,538,0,0
10470,577,0,0
10473,530,0,0
10475,452,0,0
10478,420,0,0
10480,437,0,0
10483,486,0,0
10485,542,0,0
10488,560,0,0
10490,495,0,0
10493,431,0,0
10495,420,0,0
10498,451,0,0
10500,505,0,0
10503,556,0,0
10505,542,0,0
10508,466,0,0
10510,420,0,0
10513,432,0,0
10515,473,0,0
10518,530,0,0
10520,571,0,0
10523,520,0,0
10526,449,0,0
10528,422,0,0
10531,444,0,0
10533,496,0,0
10536,555,0,0
10538,567,0,0
10541,500,0,0
10543,444,0,0
10546,430,0,0
10548,467,0,0
10551,522,0,0
10553,568,0,0
10556,545,0,0
10558,473,0,0
10561,430,0,0
10563,442,0,0
10566,488,0,0
10568,545,0,0
10571,576,0,0
10573,523,0,0
10576,451,0,0
10578,426,0,0
10581,449,0,0
10583,503,0,0
10586,557,0,0
10588,570,0,0
10591,501,0,0
10593,443,0,0
10596,433,0,0
10598,467,0,0
10601,521,0,0
10603,572,0,0
10606,550,0,0
10608,480,0,0
10611,437,0,0
10613,446,0,0
10616,490,0,0
10618,547,0,0
10621,580,0,0
10623,527,0,0
10626,453,0,0
10628,434,0,0
10631,454,0,0
10633,508,0,0
10636,568,0,0
10638,574,0,0
10641,501,0,0
10643,446,0,0
10646,435,0,0
10648,472,0,0
10651,530,0,0
10653,579,0,0
10656,552,0,0
10658,477,0,0
10661,433,0,0
10663,443,0,0
10666,491,0,0
10668,547,0,0
10671,577,0,0
10673,524,0,0
10676,452,0,0
10678,431,0,0
10681,458,0,0
10683,509,0,0
10686,568,0,0
10688,569,0,0
10691,497,0,0
10693,440,0,0
10696,434,0,0
10698,469,0,0
10701,527,0,0
10703,579,0,0
10706,549,0,0
10708,474,0,0
10711,441,0,0
10713,451,0,0
10716,494,0,0
10718,548,0,0
10721,578,0,0
10723,521,0,0
10726,460,0,0
10728,435,0,0
10731,462,0,0
10733,517,0,0
10736,572,0,0
10738,571,0,0
10741,497,0,0
10743,444,0,0
10746,440,0,0
10748,482,0,0
10751,536,0,0
10753,581,0,0
10756,552,0,0
10758,478,0,0
10761,444,0,0
10763,465,0,0
10766,511,0,0
10768,570,0,0
10771,601,0,0
10773,539,0,0
10776,467,0,0
10778,451,0,0
10781,474,0,0
10783,526,0,0
10786,578,0,0
10788,578,0,0
10791,506,0,0
10793,460,0,0
10796,472,0,0
10798,515,0,0
10801,572,0,0
10803,612,0,0
10806,571,0,0
10808,488,0,0
10811,445,0,0
10813,456,0,0
10816,502,0,0
10818,553,0,0
10821,581,0,0
10824,524,0,0
10826,457,0,0
10829,446,0,0
10831,469,0,0
10834,524,0,0
10836,572,0,0
10839,565,0,0
10841,491,0,0
10844,442,0,0
10846,440,0,0
10849,475,0,0
10851,533,0,0
10854,577,0,0
10856,535,0,0
10859,462,0,0
10861,430,0,0
10864,450,0,0
10866,492,0,0
10869,542,0,0
10871,557,0,0
10874,484,0,0
10876,422,0,0
10879,411,0,0
10881,449,0,0
10884,527,0,0
10886,613,0,0
10889,644,0,0
10891,629,0,0
10894,646,0,0
10896,710,0,0
10899,817,0,0
10901,940,0,0
10904,1005,0,0
10906,979,0,0
10909,875,0,0
10911,753,0,0
10914,647,0,0
10916,586,0,0
10919,557,0,0
10921,526,0,0
10924,449,0,0
10926,406,0,0
10929,426,0,0
10931,485,0,0
10934,563,0,0
10936,619,0,0
10939,596,0,0
10941,504,0,0
10944,441,0,0
10946,432,0,0
10949,465,0,0
10951,517,0,0
10954,557,0,0
10956,511,0,0
10959,441,0,0
10961,412,0,0
10964,435,0,0
10966,486,0,0
10969,541,0,0
10971,557,0,0
10974,489,0,0
10976,428,0,0
10979,414,0,0
10981,445,0,0
10984,502,0,0
10986,556,0,0
10989,542,0,0
10991,470,0,0
10994,427,0,0
10996,433,0,0
10999,478,0,0
11001,531,0,0
11004,567,0,0
11006,520,0,0
11009,456,0,0
11011,427,0,0
11014,450,0,0
11016,499,0,0
11019,554,0,0
11021,566,0,0
11024,496,0,0
11026,439,0,0
11029,431,0,0
11031,466,0,0
11034,524,0,0
11036,573,0,0
11039,551,0,0
11041,480,0,0
11044,436,0,0
11046,445,0,0
11049,492,0,0
11051,548,0,0
11054,583,0,0
11056,535,0,0
11059,467,0,0
11062,443,0,0
11064,467,0,0
11067,518,0,0
11069,571,0,0
11072,577,0,0
11074,510,0,0
11077,455,0,0
11079,454,0,0
11082,493,0,0
11084,551,0,0
11087,601,0,0
11089,576,0,0
11092,501,0,0
11094,456,0,0
11097,473,0,0
11099,522,0,0
11102,579,0,0
11104,616,0,0
11107,564,0,0
11109,498,0,0
11112,480,0,0
11114,504,0,0
11117,552,0,0
11119,603,0,0
11122,607,0,0
11124,544,0,0
11127,488,0,0
11129,488,0,0
11132,524,0,0
11134,576,0,0
11137,623,0,0
11139,592,0,0
11142,517,0,0
11144,476,0,0
11147,484,0,0
11149,527,0,0
11152,582,0,0
11154,605,0,0
11157,546,0,0
11159,473,0,0
11162,454,0,0
11164,470,0,0
11167,519,0,0
11169,571,0,0
11172,566,0,0
11174,489,0,0
11177,435,0,0
11179,436,0,0
11182,468,0,0
11184,524,0,0
11187,573,0,0
11189,536,0,0
11192,460,0,0
11194,420,0,0
11197,432,0,0
11199,476,0,0
11202,533,0,0
11204,562,0,0
11207,504,0,0
11209,442,0,0
11212,421,0,0
11214,446,0,0
11217,499,0,0
11219,552,0,0
11222,546,0,0
11224,474,0,0
11227,421,0,0
11229,421,0,0
11232,458,0,0
11234,514,0,0
11237,564,0,0
11239,527,0,0
11242,457,0,0
11244,422,0,0
11247,443,0,0
11249,487,0,0
11252,538,0,0
11254,563,0,0
11257,503,0,0
11259,439,0,0
11262,428,0,0
11264,451,0,0
11267,503,0,0
11269,556,0,0
11272,549,0,0
11274,478,0,0
11277,429,0,0
11279,432,0,0
11282,474,0,0
11284,531,0,0
11287,577,0,0
11289,538,0,0
11292,463,0,0
11294,427,0,0
11297,444,0,0
11299,493,0,0
11302,552,0,0
11304,578,0,0
11307,516,0,0
11309,453,0,0
11312,433,0,0
11314,460,0,0
11317,509,0,0
11319,562,0,0
11322,556,0,0
11324,487,0,0
11327,443,0,0
11329,443,0,0
11332,485,0,0
11334,538,0,0
11337,580,0,0
11340,532,0,0
11342,460,0,0
11345,422,0,0
11347,443,0,0
11350,490,0,0
11352,547,0,0
11355,570,0,0
11357,504,0,0
11360,447,0,0
11362,434,0,0
11365,467,0,0
11367,516,0,0
11370,567,0,0
11372,548,0,0
11375,467,0,0
11377,421,0,0
11380,427,0,0
11382,472,0,0
11385,524,0,0
11387,568,0,0
11390,528,0,0
11392,460,0,0
11395,435,0,0
11397,457,0,0
11400,508,0,0
11402,563,0,0
11405,582,0,0
11407,517,0,0
11410,459,0,0
11412,451,0,0
11415,490,0,0
11417,545,0,0
11420,595,0,0
11422,582,0,0
11425,507,0,0
11427,461,0,0
11430,469,0,0
11432,515,0,0
11435,571,0,0
11437,605,0,0
11440,554,0,0
11442,486,0,0
11445,462,0,0
11447,489,0,0
11450,543,0,0
11452,599,0,0
11455,610,0,0
11457,543,0,0
11460,475,0,0
11462,462,0,0
11465,487,0,0
11467,537,0,0
11470,579,0,0
11472,557,0,0
11475,486,0,0
11477,441,0,0
11480,454,0,0
11482,495,0,0
11485,543,0,0
11487,575,0,0
11490,525,0,0
11492,456,0,0
11495,431,0,0
11497,456,0,0
11500,509,0,0
11502,563,0,0
11505,572,0,0
11507,501,0,0
11510,445,0,0
11512,436,0,0
11515,470,0,0
11517,524,0,0
11520,572,0,0
11522,549,0,0
11525,470,0,0
11527,430,0,0
11530,431,0,0
11532,475,0,0
11535,532,0,0
11537,569,0,0
11540,527,0,0
11542,486,0,0
11545,511,0,0
11547,599,0,0
11550,719,0,0
11552,844,0,0
11555,915,0,0
11557,912,0,0
11560,907,0,0
11562,894,0,0
11565,882,0,0
11567,841,0,0
11570,773,0,0
11573,648,0,0
11575,494,0,0
11578,408,0,0
11580,404,0,0
11583,460,0,0
11585,541,0,0
11588,598,0,0
11590,566,0,0
11593,505,0,0
11595,476,0,0
11598,490,0,0
11600,521,0,0
11603,561,0,0
11605,548,0,0
11608,469,0,0
11610,415,0,0
11613,415,0,0
11615,454,0,0
11618,515,0,0
11620,562,0,0
11623,533,0,0
11625,460,0,0
11628,421,0,0
11630,436,0,0
11633,481,0,0
11635,534,0,0
11638,560,0,0
11640,498,0,0
11643,438,0,0
11645,420,0,0
11648,448,0,0
11650,506,0,0
11653,556,0,0
11655,553,0,0
11658,481,0,0
11660,435,0,0
11663,432,0,0
11665,475,0,0
11668,526,0,0
11670,570,0,0
11673,532,0,0
11675,459,0,0
11678,427,0,0
11680,450,0,0
11683,493,0,0
11685,545,0,0
11688,570,0,0
11690,510,0,0
11693,450,0,0
11695,441,0,0
11698,464,0,0
11700,518,0,0
11703,566,0,0
11705,558,0,0
11708,485,0,0
11710,439,0,0
11713,445,0,0
11715,485,0,0
11718,544,0,0
11720,585,0,0
11723,547,0,0
11725,473,0,0
11728,443,0,0
11730,465,0,0
11733,516,0,0
11735,571,0,0
11738,590,0,0
11740,528,0,0
11743,461,0,0
11745,450,0,0
11748,486,0,0
11750,538,0,0
11753,589,0,0
11755,577,0,0
11758,500,0,0
11760,459,0,0
11763,463,0,0
11765,505,0,0
11768,564,0,0
11770,605,0,0
11773,564,0,0
11775,493,0,0
11778,470,0,0
11780,499,0,0
11783,542,0,0
11785,595,0,0
11788,612,0,0
11790,547,0,0
11793,484,0,0
11795,474,0,0
11798,506,0,0
11800,562,0,0
11803,604,0,0
11805,582,0,0
11808,497,0,0
11810,450,0,0
11813,455,0,0
11815,500,0,0
11818,557,0,0
11820,592,0,0
11823,540,0,0
11825,469,0,0
11828,438,0,0
11830,458,0,0
11833,507,0,0
11835,559,0,0
11838,568,0,0
11840,496,0,0
11843,436,0,0
11846,427,0,0
11848,457,0,0
11851,511,0,0
11853,561,0,0
11856,542,0,0
11858,464,0,0
11861,429,0,0
11863,432,0,0
11866,476,0,0
11868,529,0,0
11871,567,0,0
11873,521,0,0
11876,448,0,0
11878,425,0,0
11881,451,0,0
11883,495,0,0
11886,547,0,0
11888,555,0,0
11891,486,0,0
11893,430,0,0
11896,429,0,0
11898,465,0,0
11901,522,0,0
11903,575,0,0
11906,550,0,0
11908,476,0,0
11911,435,0,0
11913,441,0,0
11916,481,0,0
11918,534,0,0
11921,568,0,0
11923,521,0,0
11926,456,0,0
11928,435,0,0
11931,462,0,0
11933,508,0,0
11936,559,0,0
11938,566,0,0
11941,498,0,0
11943,443,0,0
11946,439,0,0
11948,473,0,0
11951,527,0,0
11953,576,0,0
11956,549,0,0
11958,475,0,0
11961,437,0,0
11963,449,0,0
11966,492,0,0
11968,552,0,0
11971,579,0,0
11973,528,0,0
11976,463,0,0
11978,449,0,0
11981,475,0,0
11983,517,0,0
11986,567,0,0
11988,572,0,0
11991,497,0,0
11993,448,0,0
11996,447,0,0
11998,482,0,0
12001,537,0,0
12003,585,0,0
12006,554,0,0
12008,480,0,0
12011,443,0,0
12013,456,0,0
12016,503,0,0
12018,558,0,0
12021,587,0,0
12023,530,0,0
12026,466,0,0
12028,442,0,0
12031,467,0,0
12033,519,0,0
12036,574,0,0
12038,580,0,0
12041,508,0,0
12043,459,0,0
12046,458,0,0
12048,497,0,0
12051,551,0,0
12053,597,0,0
12056,569,0,0
12058,495,0,0
12061,459,0,0
12063,477,0,0
12066,523,0,0
12068,580,0,0
12071,602,0,0
12073,545,0,0
12076,474,0,0
12078,460,0,0
12081,494,0,0
12083,556,0,0
12086,614,0,0
12088,615,0,0
12091,540,0,0
12093,479,0,0
12096,470,0,0
12098,501,0,0
12101,549,0,0
12103,587,0,0
12106,552,0,0
12108,479,0,0
12111,449,0,0
12113,471,0,0
12116,513,0,0
12119,564,0,0
12121,588,0,0
12124,523,0,0
12126,456,0,0
12129,442,0,0
12131,464,0,0
12134,512,0,0
12136,562,0,0
12139,555,0,0
12141,485,0,0
12144,438,0,0
12146,446,0,0
12149,485,0,0
12151,542,0,0
12154,580,0,0
12156,539,0,0
12159,462,0,0
12161,430,0,0
12164,438,0,0
12166,478,0,0
12169,530,0,0
12171,555,0,0
12174,506,0,0
12176,463,0,0
12179,478,0,0
12181,547,0,0
12184,651,0,0
12186,766,0,0
12189,823,0,0
12191,816,0,0
12194,835,0,0
12196,884,0,0
12199,934,0,0
12201,952,0,0
12204,906,0,0
12206,753,0,0
12209,580,0,0
12211,463,0,0
12214,428,0,0
12216,457,0,0
12219,522,0,0
12221,567,0,0
12224,532,0,0
12226,497,0,0
12229,491,0,0
12231,517,0,0
12234,553,0,0
12236,586,0,0
12239,559,0,0
12241,471,0,0
12244,418,0,0
12246,421,0,0
12249,462,0,0
12251,521,0,0
12254,563,0,0
12256,516,0,0
12259,450,0,0
12261,420,0,0
12264,440,0,0
12266,486,0,0
12269,536,0,0
12271,553,0,0
12274,492,0,0
12276,432,0,0
12279,430,0,0
12281,461,0,0
12284,513,0,0
12286,563,0,0
12289,546,0,0
12291,470,0,0
12294,426,0,0
12296,436,0,0
12299,472,0,0
12301,526,0,0
12304,564,0,0
12306,517,0,0
12309,449,0,0
12311,429,0,0
12314,450,0,0
12316,499,0,0
12319,553,0,0
12321,562,0,0
12324,496,0,0
12326,439,0,0
12329,437,0,0
12331,471,0,0
12334,523,0,0
12336,571,0,0
12339,553,0,0
12341,481,0,0
12344,443,0,0
12346,460,0,0
12349,501,0,0
12351,556,0,0
12354,585,0,0
12356,535,0,0
12359,463,0,0
12361,445,0,0
12364,472,0,0
12366,521,0,0
12369,579,0,0
12371,593,0,0
12374,524,0,0
12376,469,0,0
12379,465,0,0
12382,496,0,0
12384,550,0,0
12387,597,0,0
12389,579,0,0
12392,507,0,0
12394,470,0,0
12397,487,0,0
12399,532,0,0
12402,586,0,0
12404,620,0,0
12407,568,0,0
12409,504,0,0
12412,480,0,0
12414,508,0,0
12417,559,0,0
12419,612,0,0
12422,618,0,0
12424,552,0,0
12427,497,0,0
12429,496,0,0
12432,528,0,0
12434,575,0,0
12437,617,0,0
12439,581,0,0
12442,507,0,0
12444,465,0,0
12447,474,0,0
12449,522,0,0
12452,569,0,0
12454,594,0,0
12457,535,0,0
12459,464,0,0
12462,444,0,0
12464,466,0,0
12467,511,0,0
12469,562,0,0
12472,561,0,0
12474,492,0,0
12477,444,0,0
12479,445,0,0
12482,480,0,0
12484,536,0,0
12487,580,0,0
12489,543,0,0
12492,468,0,0
12494,427,0,0
12497,438,0,0
12499,486,0,0
12502,542,0,0
12504,569,0,0
12507,513,0,0
12509,448,0,0
12512,433,0,0
12514,459,0,0
12517,510,0,0
12519,561,0,0
12522,554,0,0
12524,485,0,0
12527,436,0,0
12529,440,0,0
12532,477,0,0
12534,535,0,0
12537,577,0,0
12539,541,0,0
12542,473,0,0
12544,435,0,0
12547,449,0,0
12549,495,0,0
12552,550,0,0
12554,577,0,0
12557,518,0,0
12559,452,0,0
12562,440,0,0
12564,470,0,0
12567,518,0,0
12569,573,0,0
12572,566,0,0
12574,497,0,0
12577,445,0,0
12579,447,0,0
12582,483,0,0
12584,536,0,0
12587,577,0,0
12589,541,0,0
12592,469,0,0
12594,441,0,0
12597,462,0,0
12599,515,0,0
12602,566,0,0
12604,589,0,0
12607,522,0,0
12609,459,0,0
12612,447,0,0
12614,479,0,0
12617,525,0,0
12619,576,0,0
12622,568,0,0
12624,499,0,0
12627,455,0,0
12629,462,0,0
12632,501,0,0
12635,557,0,0
12637,592,0,0
12640,549,0,0
12642,475,0,0
12645,451,0,0
12647,466,0,0
12650,515,0,0
12652,570,0,0
12655,588,0,0
12657,525,0,0
12660,461,0,0
12662,448,0,0
12665,478,0,0
12667,533,0,0
12670,585,0,0
12672,569,0,0
12675,500,0,0
12677,455,0,0
12680,461,0,0
12682,502,0,0
12685,559,0,0
12687,604,0,0
12690,567,0,0
12692,501,0,0
12695,473,0,0
12697,496,0,0
12700,542,0,0
12702,593,0,0
12705,609,0,0
12707,540,0,0
12710,475,0,0
12712,467,0,0
12715,497,0,0
12717,556,0,0
12720,613,0,0
12722,606,0,0
12725,533,0,0
12727,487,0,0
12730,489,0,0
12732,523,0,0
12735,568,0,0
12737,597,0,0
12740,543,0,0
12742,475,0,0
12745,448,0,0
12747,472,0,0
12750,520,0,0
12752,574,0,0
12755,581,0,0
12757,513,0,0
12760,454,0,0
12762,444,0,0
12765,479,0,0
12767,527,0,0
12770,573,0,0
12772,553,0,0
12775,478,0,0
12777,439,0,0
12780,451,0,0
12782,490,0,0
12785,550,0,0
12787,584,0,0
12790,538,0,0
12792,467,0,0
12795,437,0,0
12797,457,0,0
12800,497,0,0
12802,543,0,0
12805,550,0,0
12807,487,0,0
12810,437,0,0
12812,449,0,0
12815,512,0,0
12817,603,0,0
12820,705,0,0
12822,746,0,0
12825,741,0,0
12827,763,0,0
12830,836,0,0
12832,933,0,0
12835,1006,0,0
12837,1003,0,0
12840,875,0,0
12842,690,0,0
12845,553,0,0
12847,486,0,0
12850,478,0,0
12852,513,0,0
12855,535,0,0
12857,490,0,0
12860,468,0,0
12862,490,0,0
12865,530,0,0
12867,572,0,0
12870,600,0,0
12872,551,0,0
12875,462,0,0
12877,408,0,0
12880,418,0,0
12882,463,0,0
12885,524,0,0
12887,561,0,0
12890,514,0,0
12892,449,0,0
12895,427,0,0
12897,453,0,0
12900,497,0,0
12902,549,0,0
12905,550,0,0
12907,482,0,0
12910,429,0,0
12913,429,0,0
12915,470,0,0
12918,523,0,0
12920,575,0,0
12923,544,0,0
12925,471,0,0
12928,435,0,0
12930,446,0,0
12933,493,0,0
12935,548,0,0
12938,581,0,0
12940,523,0,0
12943,455,0,0
12945,438,0,0
12948,462,0,0
12950,511,0,0
12953,566,0,0
12955,564,0,0
12958,496,0,0
12960,449,0,0
12963,451,0,0
12965,490,0,0
12968,542,0,0
12970,588,0,0
12973,555,0,0
12975,486,0,0
12978,446,0,0
12980,460,0,0
12983,505,0,0
12985,559,0,0
12988,585,0,0
12990,527,0,0
12993,465,0,0
12995,458,0,0
12998,486,0,0
13000,536,0,0
13003,590,0,0
13005,578,0,0
13008,503,0,0
13010,454,0,0
13013,455,0,0
13015,496,0,0
13018,550,0,0
13020,594,0,0
13023,560,0,0
13025,487,0,0
13028,461,0,0
13030,483,0,0
13033,534,0,0
13035,586,0,0
13038,607,0,0
13040,543,0,0
13043,479,0,0
13045,465,0,0
13048,499,0,0
13050,559,0,0
13053,616,0,0
13055,606,0,0
13058,539,0,0
13060,488,0,0
13063,492,0,0
13065,532,0,0
13068,582,0,0
13070,624,0,0
13073,581,0,0
13075,508,0,0
13078,475,0,0
13080,492,0,0
13083,535,0,0
13085,583,0,0
13088,599,0,0
13090,525,0,0
13093,457,0,0
13095,441,0,0
13098,465,0,0
13100,521,0,0
13103,570,0,0
13105,554,0,0
13108,478,0,0
13110,433,0,0
13113,434,0,0
13115,472,0,0
13118,524,0,0
13120,565,0,0
13123,512,0,0
13125,441,0,0
13128,417,0,0
13130,442,0,0
13133,494,0,0
13135,549,0,0
13138,560,0,0
13140,485,0,0
13143,422,0,0
13145,413,0,0
13148,445,0,0
13150,499,0,0
13153,554,0,0
13155,542,0,0
13158,477,0,0
13160,432,0,0
13163,441,0,0
13165,484,0,0
13168,540,0,0
13170,576,0,0
13173,528,0,0
13175,465,0,0
13178,439,0,0
13180,459,0,0
13183,508,0,0
13186,560,0,0
13188,573,0,0
13191,502,0,0
13193,449,0,0
13196,437,0,0
13198,473,0,0
13201,527,0,0
13203,575,0,0
13206,552,0,0
13208,480,0,0
13211,443,0,0
13213,448,0,0
13216,494,0,0
13218,543,0,0
13221,577,0,0
13223,527,0,0
13226,459,0,0
13228,439,0,0
13231,470,0,0
13233,519,0,0
13236,574,0,0
13238,584,0,0
13241,514,0,0
13243,461,0,0
13246,458,0,0
13248,490,0,0
13251,541,0,0
13253,583,0,0
13256,560,0,0
13258,485,0,0
13261,447,0,0
13263,461,0,0
13266,499,0,0
13268,551,0,0
13271,586,0,0
13273,529,0,0
13276,460,0,0
13278,447,0,0
13281,474,0,0
13283,522,0,0
13286,573,0,0
13288,572,0,0
13291,502,0,0
13293,444,0,0
13296,444,0,0
13298,481,0,0
13301,538,0,0
13303,584,0,0
13306,557,0,0
13308,481,0,0
13311,442,0,0
13313,453,0,0
13316,497,0,0
13318,552,0,0
13321,584,0,0
13323,533,0,0
13326,469,0,0
13328,447,0,0
13331,471,0,0
13333,523,0,0
13336,571,0,0
13338,574,0,0
13341,502,0,0
13343,448,0,0
13346,444,0,0
13348,481,0,0
13351,538,0,0
13353,585,0,0
13356,559,0,0
13358,487,0,0
13361,444,0,0
13363,456,0,0
13366,500,0,0
13368,554,0,0
13371,577,0,0
13373,518,0,0
13376,458,0,0
13378,439,0,0
13381,471,0,0
13383,520,0,0
13386,570,0,0
13388,567,0,0
13391,495,0,0
13393,445,0,0
13396,446,0,0
13398,487,0,0
13401,540,0,0
13403,587,0,0
13406,556,0,0
13408,490,0,0
13411,459,0,0
13413,477,0,0
13416,522,0,0
13418,574,0,0
13421,601,0,0
13423,536,0,0
13426,472,0,0
13429,457,0,0
13431,481,0,0
13434,538,0,0
13436,597,0,0
13439,592,0,0
13441,525,0,0
13444,480,0,0
13446,480,0,0
13449,510,0,0
13451,559,0,0
13454,594,0,0
13456,551,0,0
13459,474,0,0
13461,439,0,0
13464,463,0,0
13466,508,0,0
13469,562,0,0
13471,584,0,0
13474,518,0,0
13476,451,0,0
13479,442,0,0
13481,471,0,0
13484,521,0,0
13486,576,0,0
13489,564,0,0
13491,492,0,0
13494,440,0,0
13496,447,0,0
13499,487,0,0
13501,536,0,0
13504,578,0,0
13506,538,0,0
13509,463,0,0
13511,439,0,0
13514,451,0,0
13516,492,0,0
13519,538,0,0
13521,557,0,0
13524,495,0,0
13526,443,0,0
13529,455,0,0
13531,516,0,0
13534,620,0,0
13536,733,0,0
13539,788,0,0
13541,785,0,0
13544,808,0,0
13546,869,0,0
13549,957,0,0
13551,1008,0,0
13554,1000,0,0
13556,870,0,0
13559,676,0,0
13561,526,0,0
13564,451,0,0
13566,456,0,0
13569,510,0,0
13571,551,0,0
13574,527,0,0
13576,507,0,0
13579,510,0,0
13581,537,0,0
13584,571,0,0
13586,598,0,0
13589,557,0,0
13591,473,0,0
13594,420,0,0
13596,432,0,0
13599,475,0,0
13601,528,0,0
13604,566,0,0
13606,519,0,0
13609,449,0,0
13611,421,0,0
13614,447,0,0
13616,490,0,0
13619,546,0,0
13621,558,0,0
13624,495,0,0
13626,440,0,0
13629,433,0,0
13631,464,0,0
13634,516,0,0
13636,561,0,0
13639,540,0,0
13641,467,0,0
13644,428,0,0
13646,437,0,0
13649,480,0,0
13651,537,0,0
13654,569,0,0
13656,523,0,0
13659,455,0,0
13661,435,0,0
13664,461,0,0
13666,512,0,0
13669,566,0,0
13671,571,0,0
13674,500,0,0
13676,448,0,0
13679,444,0,0
13681,483,0,0
13684,533,0,0
13686,579,0,0
13689,553,0,0
13691,478,0,0
13694,435,0,0
13696,446,0,0
13699,492,0,0
13701,553,0,0
13704,587,0,0
13707,540,0,0
13709,476,0,0
13712,452,0,0
13714,473,0,0
13717,523,0,0
13719,576,0,0
13722,582,0,0
13724,516,0,0
13727,460,0,0
13729,456,0,0
13732,493,0,0
13734,550,0,0
13737,600,0,0
13739,568,0,0
13742,495,0,0
13744,464,0,0
13747,476,0,0
13749,528,0,0
13752,583,0,0
13754,614,0,0
13757,563,0,0
13759,493,0,0
13762,483,0,0
13764,511,0,0
13767,562,0,0
13769,616,0,0
13772,621,0,0
13774,550,0,0
13777,492,0,0
13779,493,0,0
13782,528,0,0
13784,580,0,0
13787,625,0,0
13789,586,0,0
13792,515,0,0
13794,473,0,0
13797,484,0,0
13799,530,0,0
13802,578,0,0
13804,600,0,0
13807,539,0,0
13809,470,0,0
13812,444,0,0
13814,466,0,0
13817,515,0,0
13819,569,0,0
13822,566,0,0
13824,492,0,0
13827,437,0,0
13829,437,0,0
13832,476,0,0
13834,531,0,0
13837,576,0,0
13839,540,0,0
13842,468,0,0
13844,436,0,0
13847,440,0,0
13849,485,0,0
13852,534,0,0
13854,557,0,0
13857,498,0,0
13859,438,0,0
13862,425,0,0
13864,458,0,0
13867,506,0,0
13869,561,0,0
13872,550,0,0
13874,477,0,0
13877,432,0,0
13879,432,0,0
13882,476,0,0
13884,527,0,0
13887,568,0,0
13889,526,0,0
13892,457,0,0
13894,430,0,0
13897,450,0,0
13899,496,0,0
13902,553,0,0
13904,570,0,0
13907,509,0,0
13909,445,0,0
13912,437,0,0
13914,467,0,0
13917,519,0,0
13919,569,0,0
13922,561,0,0
13924,487,0,0
13927,443,0,0
13929,450,0,0
13932,486,0,0
13934,545,0,0
13937,581,0,0
13939,542,0,0
13942,468,0,0
13944,436,0,0
13947,455,0,0
13949,502,0,0
13952,559,0,0
13954,583,0,0
13957,515,0,0
13960,453,0,0
13962,446,0,0
13965,474,0,0
13967,529,0,0
13970,580,0,0
13972,567,0,0
13975,494,0,0
13977,444,0,0
13980,448,0,0
13982,488,0,0
13985,543,0,0
13987,582,0,0
13990,538,0,0
13992,471,0,0
13995,441,0,0
13997,460,0,0
14000,510,0,0
14002,567,0,0
14005,585,0,0
14007,513,0,0
14010,456,0,0
14012,444,0,0
14015,476,0,0
14017,526,0,0
14020,574,0,0
14022,556,0,0
14025,482,0,0
14027,445,0,0
14030,455,0,0
14032,495,0,0
14035,550,0,0
14037,582,0,0
14040,533,0,0
14042,462,0,0
14045,439,0,0
14047,460,0,0
14050,511,0,0
14052,563,0,0
14055,576,0,0
14057,505,0,0
14060,451,0,0
14062,445,0,0
14065,477,0,0
14067,532,0,0
14070,577,0,0
14072,553,0,0
14075,482,0,0
14077,446,0,0
14080,454,0,0
14082,498,0,0
14085,555,0,0
14087,588,0,0
14090,536,0,0
14092,465,0,0
14095,442,0,0
14097,460,0,0
14100,511,0,0
14102,562,0,0
14105,573,0,0
14107,504,0,0
14110,452,0,0
14112,450,0,0
14115,483,0,0
14117,538,0,0
14120,585,0,0
14122,558,0,0
14125,480,0,0
14127,437,0,0
14130,452,0,0
14132,495,0,0
14135,552,0,0
14137,587,0,0
14140,532,0,0
14142,461,0,0
14145,440,0,0
14147,464,0,0
14150,515,0,0
14152,568,0,0
14155,574,0,0
14157,506,0,0
14160,449,0,0
14162,448,0,0
14165,477,0,0
14167,532,0,0
14170,578,0,0
14172,549,0,0
14175,479,0,0
14177,437,0,0
14180,453,0,0
14182,499,0,0
14185,559,0,0
14187,586,0,0
14190,529,0,0
14192,463,0,0
14195,444,0,0
14197,468,0,0
14200,515,0,0
14202,567,0,0
14205,569,0,0
14207,506,0,0
14210,453,0,0
14212,452,0,0
14215,487,0,0
14217,544,0,0
14220,591,0,0
14222,554,0,0
14225,477,0,0
14228,441,0,0
14230,454,0,0
14233,503,0,0
14235,557,0,0
14238,587,0,0
14240,535,0,0
14243,467,0,0
14245,449,0,0
14248,471,0,0
14250,520,0,0
14253,573,0,0
14255,575,0,0
14258,499,0,0
14260,449,0,0
14263,448,0,0
14265,486,0,0
14268,537,0,0
14270,582,0,0
14273,542,0,0
14275,470,0,0
14278,441,0,0
14280,455,0,0
14283,501,0,0
14285,557,0,0
14288,578,0,0
14290,514,0,0
14293,450,0,0
14295,437,0,0
14298,466,0,0
14300,515,0,0
14303,568,0,0
14305,559,0,0
14308,484,0,0
14310,435,0,0
14313,444,0,0
14315,483,0,0
14318,537,0,0
14320,581,0,0
14323,544,0,0
14325,466,0,0
14328,434,0,0
14330,452,0,0
14333,507,0,0
14335,559,0,0
14338,583,0,0
14340,524,0,0
14343,461,0,0
14345,453,0,0
14348,478,0,0
14350,531,0,0
14353,583,0,0
14355,575,0,0
14358,507,0,0
14360,459,0,0
14363,464,0,0
14365,502,0,0
14368,556,0,0
14370,599,0,0
14373,555,0,0
14375,483,0,0
14378,455,0,0
14380,469,0,0
14383,518,0,0
14385,574,0,0
14388,586,0,0
14390,520,0,0
14393,458,0,0
14395,449,0,0
14398,484,0,0
14400,538,0,0
14403,593,0,0
14405,577,0,0
14408,503,0,0
14410,457,0,0
14413,465,0,0
14415,499,0,0
14418,553,0,0
14420,593,0,0
14423,550,0,0
14425,482,0,0
14428,460,0,0
14430,478,0,0
14433,525,0,0
14435,579,0,0
14438,597,0,0
14440,530,0,0
14443,466,0,0
14445,453,0,0
14448,489,0,0
14450,542,0,0
14453,590,0,0
14455,576,0,0
14458,505,0,0
14460,457,0,0
14463,464,0,0
14465,507,0,0
14468,563,0,0
14470,600,0,0
14473,555,0,0
14475,485,0,0
14478,461,0,0
14480,480,0,0
14483,535,0,0
14485,587,0,0
14488,603,0,0
14490,538,0,0
14493,480,0,0
14496,470,0,0
14498,497,0,0
14501,547,0,0
14503,586,0,0
14506,562,0,0
14508,488,0,0
14511,447,0,0
14513,460,0,0
14516,511,0,0
14518,574,0,0
14521,614,0,0
14523,565,0,0
14526,494,0,0
14528,472,0,0
14531,487,0,0
14533,530,0,0
14536,576,0,0
14538,585,0,0
14541,520,0,0
14543,472,0,0
14546,472,0,0
14548,499,0,0
14551,545,0,0
14553,588,0,0
14556,561,0,0
14558,486,0,0
14561,447,0,0
14563,459,0,0
14566,502,0,0
14568,558,0,0
14571,597,0,0
14573,539,0,0
14576,469,0,0
14578,445,0,0
14581,470,0,0
14583,520,0,0
14586,571,0,0
14588,568,0,0
14591,491,0,0
14593,433,0,0
14596,440,0,0
14598,493,0,0
14601,581,0,0
14603,679,0,0
14606,717,0,0
14608,712,0,0
14611,746,0,0
14613,819,0,0
14616,930,0,0
14618,1008,0,0
14621,1004,0,0
14623,977,0,0
14626,862,0,0
14628,718,0,0
14631,607,0,0
14633,538,0,0
14636,526,0,0
14638,518,0,0
14641,470,0,0
14643,463,0,0
14646,504,0,0
14648,561,0,0
14651,609,0,0
14653,636,0,0
14656,584,0,0
14658,484,0,0
14661,433,0,0
14663,439,0,0
14666,481,0,0
14668,541,0,0
14671,573,0,0
14673,521,0,0
14676,457,0,0
14678,440,0,0
14681,463,0,0
14683,509,0,0
14686,559,0,0
14688,559,0,0
14691,489,0,0
14693,439,0,0
14696,442,0,0
14698,474,0,0
14701,527,0,0
14703,572,0,0
14706,538,0,0
14708,472,0,0
14711,435,0,0
14713,452,0,0
14716,500,0,0
14718,550,0,0
14721,578,0,0
14723,511,0,0
14726,451,0,0
14728,437,0,0
14731,462,0,0
14733,515,0,0
14736,572,0,0
14738,568,0,0
14741,493,0,0
14743,442,0,0
14746,443,0,0
14748,478,0,0
14751,536,0,0
14753,576,0,0
14756,540,0,0
14758,467,0,0
14761,437,0,0
14764,458,0,0
14766,506,0,0
14769,559,0,0
14771,583,0,0
14774,519,0,0
14776,459,0,0
14779,445,0,0
14781,470,0,0
14784,523,0,0
14786,578,0,0
14789,569,0,0
14791,496,0,0
14794,450,0,0
14796,459,0,0
14799,496,0,0
14801,551,0,0
14804,594,0,0
14806,555,0,0
14809,483,0,0
14811,454,0,0
14814,478,0,0
14816,525,0,0
14819,584,0,0
14821,601,0,0
14824,540,0,0
14826,476,0,0
14829,466,0,0
14831,505,0,0
14834,557,0,0
14836,611,0,0
14839,603,0,0
14841,529,0,0
14844,483,0,0
14846,489,0,0
14849,530,0,0
14851,584,0,0
14854,628,0,0
14856,586,0,0
14859,515,0,0
14861,488,0,0
14864,510,0,0
14866,557,0,0
14869,601,0,0
14871,613,0,0
14874,542,0,0
14876,480,0,0
14879,465,0,0
14881,494,0,0
14884,545,0,0
14886,591,0,0
14889,570,0,0
14891,491,0,0
14894,446,0,0
14896,450,0,0
14899,489,0,0
14901,541,0,0
14904,575,0,0
14906,526,0,0
14909,451,0,0
14911,431,0,0
14914,451,0,0
14916,499,0,0
14919,555,0,0
14921,567,0,0
14924,493,0,0
14926,434,0,0
14929,432,0,0
14931,461,0,0
14934,522,0,0
14936,570,0,0
14939,553,0,0
14941,481,0,0
14944,432,0,0
14946,438,0,0
14949,479,0,0
14951,527,0,0
14954,564,0,0
14956,519,0,0
14959,454,0,0
14961,434,0,0
14964,460,0,0
14966,509,0,0
14969,560,0,0
14971,565,0,0
14974,494,0,0
14976,438,0,0
14979,433,0,0
14981,462,0,0
14984,519,0,0
14986,570,0,0
14989,548,0,0
14991,477,0,0
14994,435,0,0
14996,443,0,0
14999,482,0,0
15001,534,0,0
15004,569,0,0
15006,516,0,0
15009,448,0,0
15011,430,0,0
15014,456,0,0
15016,511,0,0
15019,564,0,0
15022,565,0,0
15024,492,0,0
15027,428,0,0
15029,425,0,0
15032,463,0,0
15034,522,0,0
15037,574,0,0
15039,545,0,0
15042,471,0,0
15044,431,0,0
15047,442,0,0
15049,491,0,0
15052,547,0,0
15054,580,0,0
15057,521,0,0
15059,451,0,0
15062,437,0,0
15064,464,0,0
15067,519,0,0
15069,574,0,0
15072,581,0,0
15074,503,0,0
15077,450,0,0
15079,453,0,0
15082,484,0,0
15084,542,0,0
15087,585,0,0
15089,554,0,0
15092,479,0,0
15094,446,0,0
15097,461,0,0
15099,510,0,0
15102,563,0,0
15104,591,0,0
15107,531,0,0
15109,464,0,0
15112,447,0,0
15114,471,0,0
15117,522,0,0
15119,573,0,0
15122,566,0,0
15124,496,0,0
15127,451,0,0
15129,454,0,0
15132,498,0,0
15134,553,0,0
15137,596,0,0
15139,556,0,0
15142,480,0,0
15144,444,0,0
15147,461,0,0
15149,505,0,0
15152,561,0,0
15154,588,0,0
15157,528,0,0
15159,464,0,0
15162,448,0,0
15164,476,0,0
15167,525,0,0
15169,579,0,0
15172,574,0,0
15174,500,0,0
15177,444,0,0
15179,446,0,0
15182,482,0,0
15184,538,0,0
15187,583,0,0
15189,549,0,0
15192,479,0,0
15194,443,0,0
15197,458,0,0
15199,507,0,0
15202,565,0,0
15204,586,0,0
15207,528,0,0
15209,464,0,0
15212,446,0,0
15214,472,0,0
15217,526,0,0
15219,575,0,0
15222,566,0,0
15224,493,0,0
15227,448,0,0
15229,447,0,0
15232,487,0,0
15234,546,0,0
15237,588,0,0
15239,551,0,0
15242,474,0,0
15244,443,0,0
15247,465,0,0
15249,506,0,0
15252,563,0,0
15254,581,0,0
15257,521,0,0
15259,457,0,0
15262,447,0,0
15264,475,0,0
15267,527,0,0
15269,579,0,0
15272,567,0,0
15274,496,0,0
15277,447,0,0
15279,453,0,0
15282,493,0,0
15284,548,0,0
15287,588,0,0
15289,542,0,0
15292,474,0,0
15294,442,0,0
15297,466,0,0
15300,513,0,0
15302,566,0,0
15305,581,0,0
15307,515,0,0
15310,456,0,0
15312,450,0,0
15315,477,0,0
15317,531,0,0
15320,586,0,0
15322,568,0,0
15325,495,0,0
15327,449,0,0
15330,452,0,0
15332,495,0,0
15335,545,0,0
15337,585,0,0
15340,537,0,0
15342,466,0,0
15345,443,0,0
15347,463,0,0
15350,514,0,0
15352,570,0,0
15355,583,0,0
15357,516,0,0
15360,456,0,0
15362,450,0,0
15365,484,0,0
15367,536,0,0
15370,584,0,0
15372,567,0,0
15375,498,0,0
15377,453,0,0
15380,461,0,0
15382,506,0,0
15385,557,0,0
15387,593,0,0
15390,543,0,0
15392,476,0,0
15395,448,0,0
15397,470,0,0
15400,520,0,0
15402,572,0,0
15405,583,0,0
15407,514,0,0
15410,454,0,0
15412,448,0,0
15415,480,0,0
15417,535,0,0
15420,586,0,0
15422,564,0,0
15425,488,0,0
15427,451,0,0
15430,464,0,0
15432,505,0,0
15435,560,0,0
15437,594,0,0
15440,548,0,0
15442,479,0,0
15445,456,0,0
15447,481,0,0
15450,532,0,0
15452,585,0,0
15455,589,0,0
15457,519,0,0
15460,454,0,0
15462,444,0,0
15465,472,0,0
15467,526,0,0
15470,576,0,0
15472,552,0,0
15475,484,0,0
15477,450,0,0
15480,467,0,0
15482,516,0,0
15485,573,0,0
15487,604,0,0
15490,550,0,0
15492,476,0,0
15495,455,0,0
15497,480,0,0
15500,527,0,0
15502,584,0,0
15505,587,0,0
15507,514,0,0
15510,457,0,0
15512,452,0,0
15515,485,0,0
15517,540,0,0
15520,588,0,0
15522,557,0,0
15525,482,0,0
15527,451,0,0
15530,464,0,0
15532,514,0,0
15535,570,0,0
15537,600,0,0
15540,542,0,0
15542,473,0,0
15545,447,0,0
15547,464,0,0
15550,510,0,0
15553,558,0,0
15555,559,0,0
15558,501,0,0
15560,474,0,0
15563,510,0,0
15565,596,0,0
15568,712,0,0
15570,826,0,0
15573,863,0,0
15575,851,0,0
15578,878,0,0
15580,944,0,0
15583,993,0,0
15585,1006,0,0
15588,933,0,0
15590,743,0,0
15593,545,0,0
15595,429,0,0
15598,406,0,0
15600,458,0,0
15603,539,0,0
15605,580,0,0
15608,548,0,0
15610,514,0,0
15613,515,0,0
15615,537,0,0
15618,564,0,0
15620,585,0,0
15623,533,0,0
15625,452,0,0
15628,423,0,0
15630,445,0,0
15633,494,0,0
15635,547,0,0
15638,567,0,0
15640,501,0,0
15643,438,0,0
15645,427,0,0
15648,452,0,0
15650,506,0,0
15653,560,0,0
15655,554,0,0
15658,478,0,0
15660,431,0,0
15663,436,0,0
15665,474,0,0
15668,526,0,0
15670,571,0,0
15673,527,0,0
15675,458,0,0
15678,432,0,0
15680,448,0,0
15683,498,0,0
15685,556,0,0
15688,575,0,0
15690,508,0,0
15693,445,0,0
15695,432,0,0
15698,461,0,0
15700,517,0,0
15703,570,0,0
15705,554,0,0
15708,478,0,0
15710,432,0,0
15713,438,0,0
15715,481,0,0
15718,535,0,0
15720,574,0,0
15723,531,0,0
15725,462,0,0
15728,442,0,0
15730,462,0,0
15733,509,0,0
15735,565,0,0
15738,579,0,0
15740,511,0,0
15743,449,0,0
15745,446,0,0
15748,473,0,0
15750,529,0,0
15753,581,0,0
15755,567,0,0
15758,497,0,0
15760,451,0,0
15763,461,0,0
15765,508,0,0
15768,561,0,0
15770,600,0,0
15773,555,0,0
15775,487,0,0
15778,464,0,0
15780,485,0,0
15783,536,0,0
15785,592,0,0
15788,610,0,0
15790,538,0,0
15793,484,0,0
15795,472,0,0
15798,508,0,0
15800,557,0,0
15803,612,0,0
15805,594,0,0
15808,515,0,0
15810,475,0,0
15813,486,0,0
15815,530,0,0
15818,583,0,0
15820,621,0,0
15823,565,0,0
15825,486,0,0
15828,459,0,0
15830,477,0,0
15833,522,0,0
15835,571,0,0
15838,582,0,0
15841,501,0,0
15843,438,0,0
15846,434,0,0
15848,470,0,0
15851,516,0,0
15853,562,0,0
15856,534,0,0
15858,455,0,0
15861,416,0,0
15863,422,0,0
15866,466,0,0
15868,524,0,0
15871,561,0,0
15873,511,0,0
15876,440,0,0
15878,416,0,0
15881,441,0,0
15883,492,0,0
15886,548,0,0
15888,553,0,0
15891,481,0,0
15893,425,0,0
15896,423,0,0
15898,461,0,0
15901,509,0,0
15903,561,0,0
15906,532,0,0
15908,458,0,0
15911,421,0,0
15913,435,0,0
15916,479,0,0
15918,533,0,0
15921,568,0,0
15923,511,0,0
15926,446,0,0
15928,420,0,0
15931,441,0,0
15933,497,0,0
15936,554,0,0
15938,559,0,0
15941,487,0,0
15943,435,0,0
15946,429,0,0
15948,463,0,0
15951,520,0,0
15953,573,0,0
15956,544,0,0
15958,470,0,0
15961,432,0,0
15963,446,0,0
15966,483,0,0
15968,537,0,0
15971,569,0,0
15973,517,0,0
15976,456,0,0
15978,441,0,0
15981,463,0,0
15983,518,0,0
15986,568,0,0
15988,568,0,0
15991,494,0,0
15993,438,0,0
15996,438,0,0
15998,479,0,0
16001,536,0,0
16003,584,0,0
16006,552,0,0
16008,477,0,0
16011,444,0,0
16013,457,0,0
16016,499,0,0
16018,552,0,0
16021,577,0,0
16023,514,0,0
16026,448,0,0
16028,428,0,0
16031,457,0,0
16033,503,0,0
16036,561,0,0
16038,552,0,0
16041,479,0,0
16043,429,0,0
16046,433,0,0
16048,474,0,0
16051,529,0,0
16053,576,0,0
16056,537,0,0
16058,457,0,0
16061,427,0,0
16063,445,0,0
16066,489,0,0
16068,548,0,0
16071,573,0,0
16073,508,0,0
16076,443,0,0
16078,432,0,0
16081,462,0,0
16083,520,0,0
16086,571,0,0
16088,564,0,0
16091,492,0,0
16093,447,0,0
16096,446,0,0
16098,487,0,0
16101,543,0,0
16103,585,0,0
16106,549,0,0
16108,478,0,0
16111,444,0,0
16113,460,0,0
16116,508,0,0
16118,560,0,0
16121,582,0,0
16123,519,0,0
16126,458,0,0
16129,448,0,0
16131,480,0,0
16134,527,0,0
16136,576,0,0
16139,562,0,0
16141,494,0,0
16144,445,0,0
16146,452,0,0
16149,498,0,0
16151,551,0,0
16154,594,0,0
16156,551,0,0
16159,477,0,0
16161,446,0,0
16164,466,0,0
16166,508,0,0
16169,564,0,0
16171,579,0,0
16174,515,0,0
16176,454,0,0
16179,443,0,0
16181,475,0,0
16184,530,0,0
16186,585,0,0
16189,569,0,0
16191,492,0,0
16194,446,0,0
16196,452,0,0
16199,494,0,0
16201,551,0,0
16204,590,0,0
16206,546,0,0
16209,473,0,0
16211,448,0,0
16214,470,0,0
16216,520,0,0
16219,576,0,0
16221,590,0,0
16224,522,0,0
16226,464,0,0
16229,451,0,0
16231,481,0,0
16234,533,0,0
16236,581,0,0
16239,567,0,0
16241,492,0,0
16244,449,0,0
16246,459,0,0
16249,497,0,0
16251,555,0,0
16254,593,0,0
16256,542,0,0
16259,472,0,0
16261,448,0,0
16264,469,0,0
16266,517,0,0
16269,574,0,0
16271,581,0,0
16274,517,0,0
16276,459,0,0
16279,456,0,0
16281,492,0,0
16284,539,0,0
16286,587,0,0
16289,567,0,0
16291,497,0,0
16294,452,0,0
16296,461,0,0
16299,503,0,0
16301,555,0,0
16304,591,0,0
16306,542,0,0
16309,474,0,0
16311,451,0,0
16314,475,0,0
16316,522,0,0
16319,578,0,0
16321,584,0,0
16324,520,0,0
16326,463,0,0
16329,465,0,0
16331,494,0,0
16334,545,0,0
16336,591,0,0
16339,564,0,0
16341,489,0,0
16344,451,0,0
16346,462,0,0
16349,508,0,0
16351,562,0,0
16354,594,0,0
16356,541,0,0
16359,474,0,0
16361,452,0,0
16364,481,0,0
16366,531,0,0
16369,589,0,0
16371,591,0,0
16374,525,0,0
16376,468,0,0
16379,469,0,0
16381,510,0,0
16384,562,0,0
16386,608,0,0
16389,576,0,0
16391,496,0,0
16394,446,0,0
16396,453,0,0
16399,496,0,0
16401,552,0,0
16404,589,0,0
16406,536,0,0
16409,470,0,0
16412,456,0,0
16414,487,0,0
16417,539,0,0
16419,593,0,0
16422,600,0,0
16424,523,0,0
16427,463,0,0
16429,457,0,0
16432,492,0,0
16434,547,0,0
16437,594,0,0
16439,566,0,0
16442,490,0,0
16444,452,0,0
16447,460,0,0
16449,509,0,0
16452,562,0,0
16454,595,0,0
16457,533,0,0
16459,466,0,0
16462,451,0,0
16464,478,0,0
16467,532,0,0
16469,586,0,0
16472,588,0,0
16474,515,0,0
16477,459,0,0
16479,450,0,0
16482,480,0,0
16484,530,0,0
16487,574,0,0
16489,542,0,0
16492,485,0,0
16494,475,0,0
16497,537,0,0
16499,637,0,0
16502,762,0,0
16504,860,0,0
16507,870,0,0
16509,865,0,0
16512,904,0,0
16514,957,0,0
16517,984,0,0
16519,970,0,0
16522,840,0,0
16524,638,0,0
16527,483,0,0
16529,414,0,0
16532,432,0,0
16534,501,0,0
16537,579,0,0
16539,583,0,0
16542,543,0,0
16544,518,0,0
16547,522,0,0
16549,553,0,0
16552,586,0,0
16554,591,0,0
16557,515,0,0
16559,449,0,0
16562,431,0,0
16564,461,0,0
16567,517,0,0
16569,572,0,0
16572,560,0,0
16574,491,0,0
16577,438,0,0
16579,441,0,0
16582,480,0,0
16584,534,0,0
16587,579,0,0
16589,534,0,0
16592,467,0,0
16594,432,0,0
16597,451,0,0
16599,501,0,0
16602,550,0,0
16604,571,0,0
16607,511,0,0
16609,450,0,0
16612,437,0,0
16614,470,0,0
16617,524,0,0
16619,575,0,0
16622,565,0,0
16624,492,0,0
16627,444,0,0
16629,451,0,0
16632,488,0,0
16634,545,0,0
16637,586,0,0
16639,541,0,0
16642,469,0,0
16644,439,0,0
16647,465,0,0
16649,510,0,0
16652,562,0,0
16654,577,0,0
16657,512,0,0
16659,452,0,0
16662,444,0,0
16664,474,0,0
16667,528,0,0
16669,577,0,0
16672,564,0,0
16674,495,0,0
16677,453,0,0
16679,459,0,0
16682,507,0,0
16684,557,0,0
16687,597,0,0
16690,550,0,0
16692,483,0,0
16695,456,0,0
16697,474,0,0
16700,528,0,0
16702,584,0,0
16705,602,0,0
16707,539,0,0
16710,483,0,0
16712,475,0,0
16715,507,0,0
16717,560,0,0
16720,614,0,0
16722,596,0,0
16725,528,0,0
16727,489,0,0
16730,495,0,0
16732,540,0,0
16735,591,0,0
16737,630,0,0
16740,583,0,0
16742,514,0,0
16745,489,0,0
16747,510,0,0
16750,563,0,0
16752,618,0,0
16755,629,0,0
16757,557,0,0
16760,494,0,0
16762,484,0,0
16765,516,0,0
16767,557,0,0
16770,600,0,0
16772,579,0,0
16775,499,0,0
16777,458,0,0
16780,462,0,0
16782,503,0,0
16785,552,0,0
16787,584,0,0
16790,529,0,0
16792,460,0,0
16795,436,0,0
16797,455,0,0
16800,502,0,0
16802,553,0,0
16805,562,0,0
16807,493,0,0
16810,441,0,0
16812,437,0,0
16815,469,0,0
16817,523,0,0
16820,566,0,0
16822,539,0,0
16825,464,0,0
16827,421,0,0
16830,433,0,0
16832,482,0,0
16835,535,0,0
16837,569,0,0
16840,509,0,0
16842,442,0,0
16845,429,0,0
16847,456,0,0
16850,504,0,0
16852,560,0,0
16855,564,0,0
16857,491,0,0
16860,436,0,0
16862,431,0,0
16865,468,0,0
16867,525,0,0
16870,572,0,0
16872,545,0,0
16875,473,0,0
16877,435,0,0
16880,446,0,0
16882,494,0,0
16885,549,0,0
16887,576,0,0
16890,522,0,0
16892,457,0,0
16895,442,0,0
16897,468,0,0
16900,516,0,0
16902,573,0,0
16905,570,0,0
16907,503,0,0
16910,444,0,0
16912,445,0,0
16915,484,0,0
16917,538,0,0
16920,582,0,0
16922,549,0,0
16925,473,0,0
16927,439,0,0
16930,454,0,0
16932,506,0,0
16935,559,0,0
16937,586,0,0
16940,527,0,0
16942,458,0,0
16945,442,0,0
16947,473,0,0
16950,527,0,0
16952,580,0,0
16955,580,0,0
16957,504,0,0
16960,455,0,0
16962,454,0,0
16965,492,0,0
16967,546,0,0
16970,588,0,0
16972,554,0,0
16975,477,0,0
16977,440,0,0
16980,459,0,0
16983,505,0,0
16985,561,0,0
16988,587,0,0
16990,528,0,0
16993,463,0,0
16995,450,0,0
16998,479,0,0
17000,530,0,0
17003,585,0,0
17005,575,0,0
17008,500,0,0
17010,451,0,0
17013,452,0,0
17015,490,0,0
17018,541,0,0
17020,588,0,0
17023,546,0,0
17025,470,0,0
17028,444,0,0
17030,467,0,0
17033,510,0,0
17035,565,0,0
17038,587,0,0
17040,522,0,0
17043,456,0,0
17045,443,0,0
17048,472,0,0
17050,527,0,0
17053,577,0,0
17055,569,0,0
17058,497,0,0
17060,447,0,0
17063,450,0,0
17065,491,0,0
17068,548,0,0
17070,589,0,0
17073,546,0,0
17075,473,0,0
17078,445,0,0
17080,465,0,0
17083,509,0,0
17085,568,0,0
17088,587,0,0
17090,524,0,0
17093,460,0,0
17095,449,0,0
17098,476,0,0
17100,531,0,0
17103,583,0,0
17105,570,0,0
17108,495,0,0
17114,466,0,0
17117,515,0,0
17119,571,0,0
17122,567,0,0
17124,498,0,0
17127,451,0,0
17129,458,0,0
17132,493,0,0
17134,548,0,0
17137,589,0,0
17139,552,0,0
17142,480,0,0
17144,444,0,0
17147,464,0,0
17149,513,0,0
17152,570,0,0
17154,589,0,0
17157,527,0,0
17159,463,0,0
17162,449,0,0
17164,480,0,0
17167,535,0,0
17169,586,0,0
17172,577,0,0
17174,506,0,0
17177,457,0,0
17179,463,0,0
17182,499,0,0
17184,553,0,0
17187,593,0,0
17189,551,0,0
17192,481,0,0
17194,445,0,0
17197,463,0,0
17199,514,0,0
17202,572,0,0
17204,590,0,0
17207,529,0,0
17209,468,0,0
17212,454,0,0
17214,486,0,0
17217,537,0,0
17219,588,0,0
17222,573,0,0
17224,499,0,0
17227,452,0,0
17229,455,0,0
17232,498,0,0
17234,559,0,0
17237,599,0,0
17239,557,0,0
17242,484,0,0
17244,453,0,0
17247,474,0,0
17249,526,0,0
17252,585,0,0
17254,600,0,0
17257,536,0,0
17259,475,0,0
17262,470,0,0
17264,503,0,0
17267,552,0,0
17269,598,0,0
17272,571,0,0
17274,491,0,0
17277,443,0,0
17279,440,0,0
17282,484,0,0
17284,542,0,0
17287,588,0,0
17290,548,0,0
17292,484,0,0
17295,463,0,0
17297,488,0,0
17300,537,0,0
17302,587,0,0
17305,595,0,0
17307,524,0,0
17310,459,0,0
17312,453,0,0
17315,482,0,0
17317,540,0,0
17320,589,0,0
17322,569,0,0
17325,496,0,0
17327,447,0,0
17330,454,0,0
17332,494,0,0
17335,553,0,0
17337,585,0,0
17340,531,0,0
17342,457,0,0
17345,431,0,0
17347,454,0,0
17350,504,0,0
17352,558,0,0
17355,569,0,0
17357,497,0,0
17360,430,0,0
17362,418,0,0
17365,445,0,0
17367,496,0,0
17370,553,0,0
17372,548,0,0
17375,504,0,0
17377,503,0,0
17380,573,0,0
17382,692,0,0
17385,826,0,0
17387,933,0,0
17390,952,0,0
17392,936,0,0
17395,929,0,0
17397,917,0,0
17400,885,0,0
17402,815,0,0
17405,693,0,0
17407,523,0,0
17410,406,0,0
17412,381,0,0
17415,436,0,0
17417,529,0,0
17420,621,0,0
17422,627,0,0
17425,557,0,0
17427,506,0,0
17430,496,0,0
17432,520,0,0
17435,554,0,0
17437,575,0,0
17440,516,0,0
17442,448,0,0
17445,422,0,0
17447,449,0,0
17450,507,0,0
17452,564,0,0
17455,569,0,0
17457,498,0,0
17460,439,0,0
17462,436,0,0
17465,468,0,0
17467,527,0,0
17470,572,0,0
17472,543,0,0
17475,471,0,0
17477,434,0,0
17480,446,0,0
17482,493,0,0
17485,547,0,0
17487,577,0,0
17490,520,0,0
17492,453,0,0
17495,436,0,0
17497,465,0,0
17500,516,0,0
17502,572,0,0
17505,567,0,0
17507,495,0,0
17510,442,0,0
17512,439,0,0
17515,480,0,0
17517,536,0,0
17520,580,0,0
17522,547,0,0
17525,476,0,0
17527,443,0,0
17530,460,0,0
17532,507,0,0
17535,559,0,0
17537,589,0,0
17540,530,0,0
17542,462,0,0
17545,448,0,0
17547,476,0,0
17550,526,0,0
17552,582,0,0
17555,576,0,0
17557,504,0,0
17560,452,0,0
17562,457,0,0
17565,499,0,0
17567,555,0,0
17570,603,0,0
17573,565,0,0
17575,496,0,0
17578,463,0,0
17580,478,0,0
17583,531,0,0
17585,589,0,0
17588,617,0,0
17590,554,0,0
17593,491,0,0
17595,480,0,0
17598,512,0,0
17600,566,0,0
17603,620,0,0
17605,607,0,0
17608,539,0,0
17610,496,0,0
17613,505,0,0
17615,549,0,0
17618,609,0,0
17620,651,0,0
17623,611,0,0
17625,540,0,0
17628,500,0,0
17630,516,0,0
17633,562,0,0
17635,618,0,0
17638,633,0,0
17640,563,0,0
17643,498,0,0
17645,479,0,0
17648,509,0,0
17650,559,0,0
17653,601,0,0
17655,583,0,0
17658,506,0,0
17660,454,0,0
17663,457,0,0
17665,496,0,0
17668,548,0,0
17670,581,0,0
17673,536,0,0
17675,457,0,0
17678,429,0,0
17680,448,0,0
17683,496,0,0
17685,553,0,0
17688,568,0,0
17690,499,0,0
17693,436,0,0
17695,428,0,0
17698,458,0,0
17700,513,0,0
17703,567,0,0
17705,554,0,0
17708,476,0,0
17710,431,0,0
17713,436,0,0
17715,479,0,0
17718,531,0,0
17720,570,0,0
17723,525,0,0
17725,454,0,0
17728,429,0,0
17730,449,0,0
17733,499,0,0
17735,555,0,0
17738,566,0,0
17740,496,0,0
17743,438,0,0
17745,428,0,0
17748,464,0,0
17750,523,0,0
17753,575,0,0
17755,558,0,0
17758,482,0,0
17760,436,0,0
17763,441,0,0
17765,484,0,0
17768,542,0,0
17770,577,0,0
17773,527,0,0
17775,458,0,0
17778,433,0,0
17780,460,0,0
17783,510,0,0
17785,567,0,0
17788,574,0,0
17790,506,0,0
17793,446,0,0
17795,441,0,0
17798,473,0,0
17800,527,0,0
17803,578,0,0
17805,556,0,0
17808,483,0,0
17810,446,0,0
17813,449,0,0
17815,489,0,0
17818,546,0,0
17820,580,0,0
17823,531,0,0
17825,463,0,0
17828,441,0,0
17830,464,0,0
17833,516,0,0
17836,573,0,0
17838,576,0,0
17841,506,0,0
17843,450,0,0
17846,446,0,0
17848,479,0,0
17851,533,0,0
17853,579,0,0
17856,551,0,0
17858,476,0,0
17861,441,0,0
17863,451,0,0
17866,495,0,0
17868,550,0,0
17871,584,0,0
17873,526,0,0
17876,457,0,0
17878,434,0,0
17881,464,0,0
17883,515,0,0
17886,573,0,0
17888,578,0,0
17891,508,0,0
17893,451,0,0
17896,451,0,0
17898,480,0,0
17901,534,0,0
17903,581,0,0
17906,547,0,0
17908,475,0,0
17911,436,0,0
17913,447,0,0
17916,496,0,0
17918,552,0,0
17921,582,0,0
17923,526,0,0
17926,455,0,0
17928,437,0,0
17931,467,0,0
17933,513,0,0
17936,568,0,0
17938,570,0,0
17941,494,0,0
17943,440,0,0
17946,436,0,0
17948,475,0,0
17951,528,0,0
17953,573,0,0
17956,542,0,0
17958,469,0,0
17961,437,0,0
17963,453,0,0
17966,501,0,0
17968,557,0,0
17971,582,0,0
17973,519,0,0
17976,450,0,0
17978,429,0,0
17981,459,0,0
17983,514,0,0
17986,566,0,0
17988,563,0,0
17991,490,0,0
17993,445,0,0
17996,441,0,0
17998,478,0,0
18001,538,0,0
18003,579,0,0
18006,544,0,0
18008,469,0,0
18011,438,0,0
18013,453,0,0
18016,501,0,0
18018,559,0,0
18021,579,0,0
18023,510,0,0
18026,447,0,0
18028,427,0,0
18031,459,0,0
18033,513,0,0
18036,571,0,0
18038,560,0,0
18041,481,0,0
18043,432,0,0
18046,438,0,0
18048,480,0,0
18051,536,0,0
18053,580,0,0
18056,537,0,0
18058,460,0,0
18061,426,0,0
18063,447,0,0
18066,498,0,0
18068,555,0,0
18071,580,0,0
18073,511,0,0
18076,447,0,0
18079,440,0,0
18081,470,0,0
18084,526,0,0
18086,578,0,0
18089,561,0,0
18091,481,0,0
18094,432,0,0
18096,441,0,0
18099,489,0,0
18101,551,0,0
18104,595,0,0
18106,553,0,0
18109,485,0,0
18111,457,0,0
18114,478,0,0
18116,530,0,0
18119,584,0,0
18121,601,0,0
18124,537,0,0
18126,480,0,0
18129,466,0,0
18131,492,0,0
18134,542,0,0
18136,586,0,0
18139,564,0,0
18141,486,0,0
18144,443,0,0
18146,449,0,0
18149,498,0,0
18151,565,0,0
18154,612,0,0
18156,569,0,0
18159,499,0,0
18161,471,0,0
18164,486,0,0
18166,536,0,0
18169,584,0,0
18171,597,0,0
18174,527,0,0
18176,467,0,0
18179,464,0,0
18181,495,0,0
18184,549,0,0
18186,597,0,0
18189,575,0,0
18191,496,0,0
18194,454,0,0
18196,458,0,0
18199,504,0,0
18201,565,0,0
18204,598,0,0
18206,553,0,0
18209,479,0,0
18211,456,0,0
18214,475,0,0
18216,528,0,0
18219,574,0,0
18221,579,0,0
18224,500,0,0
18226,439,0,0
18229,439,0,0
18231,486,0,0
18234,569,0,0
18236,661,0,0
18239,697,0,0
18241,687,0,0
18244,716,0,0
18246,789,0,0
18249,905,0,0
18251,1005,0,0
18254,1006,0,0
18256,971,0,0
18259,843,0,0
18261,703,0,0
18264,604,0,0
18266,554,0,0
18269,543,0,0
18271,527,0,0
18274,469,0,0
18276,445,0,0
18279,479,0,0
18281,542,0,0
18284,604,0,0
18286,648,0,0
18289,599,0,0
18291,504,0,0
18294,445,0,0
18296,446,0,0
18299,483,0,0
18301,541,0,0
18304,571,0,0
18306,517,0,0
18309,451,0,0
18311,433,0,0
18314,456,0,0
18316,506,0,0
18319,564,0,0
18321,564,0,0
18324,493,0,0
18326,436,0,0
18329,433,0,0
18331,475,0,0
18334,527,0,0
18336,574,0,0
18339,543,0,0
18342,469,0,0
18344,434,0,0
18347,450,0,0
18349,499,0,0
18352,554,0,0
18354,580,0,0
18357,520,0,0
18359,451,0,0
18362,435,0,0
18364,461,0,0
18367,517,0,0
18369,573,0,0
18372,573,0,0
18374,500,0,0
18377,446,0,0
18379,442,0,0
18382,480,0,0
18384,539,0,0
18387,589,0,0
18389,553,0,0
18392,481,0,0
18394,442,0,0
18397,463,0,0
18399,507,0,0
18402,562,0,0
18404,587,0,0
18407,529,0,0
18409,460,0,0
18412,446,0,0
18414,476,0,0
18417,531,0,0
18419,585,0,0
18422,579,0,0
18424,505,0,0
18427,453,0,0
18429,458,0,0
18432,503,0,0
18434,563,0,0
18437,607,0,0
18439,569,0,0
18442,499,0,0
18444,466,0,0
18447,480,0,0
18449,535,0,0
18452,591,0,0
18454,619,0,0
18457,552,0,0
18459,488,0,0
18462,471,0,0
18464,507,0,0
18467,561,0,0
18469,617,0,0
18472,611,0,0
18474,542,0,0
18477,494,0,0
18479,497,0,0
18482,539,0,0
18484,597,0,0
18487,641,0,0
18489,600,0,0
18492,522,0,0
18494,486,0,0
18497,494,0,0
18499,543,0,0
18502,595,0,0
18504,613,0,0
18507,547,0,0
18509,477,0,0
18512,457,0,0
18514,485,0,0
18517,534,0,0
18519,581,0,0
18522,569,0,0
18524,492,0,0
18527,437,0,0
18529,442,0,0
18532,482,0,0
18534,538,0,0
18537,579,0,0
18539,529,0,0
18542,451,0,0
18544,416,0,0
18547,436,0,0
18549,488,0,0
18552,546,0,0
18554,563,0,0
18557,497,0,0
18559,435,0,0
18562,418,0,0
18564,451,0,0
18567,506,0,0
18569,558,0,0
18572,540,0,0
18574,468,0,0
18577,419,0,0
18579,425,0,0
18582,471,0,0
18584,527,0,0
18587,566,0,0
18589,518,0,0
18592,448,0,0
18594,419,0,0
18597,441,0,0
18599,493,0,0
18602,551,0,0
18604,563,0,0
18607,496,0,0
18609,435,0,0
18612,427,0,0
18614,459,0,0
18617,515,0,0
18619,567,0,0
18622,551,0,0
18624,475,0,0
18627,427,0,0
18629,433,0,0
18632,480,0,0
18634,541,0,0
18637,577,0,0
18640,528,0,0
18642,461,0,0
18645,432,0,0
18647,457,0,0
18650,507,0,0
18652,572,0,0
18655,577,0,0
18657,507,0,0
18660,446,0,0
18662,435,0,0
18665,473,0,0
18667,527,0,0
18670,578,0,0
18672,556,0,0
18675,479,0,0
18677,436,0,0
18680,444,0,0
18682,493,0,0
18685,550,0,0
18687,586,0,0
18690,534,0,0
18692,463,0,0
18695,437,0,0
18697,459,0,0
18700,516,0,0
18702,572,0,0
18705,577,0,0
18707,512,0,0
18710,451,0,0
18712,445,0,0
18715,479,0,0
18717,535,0,0
18720,584,0,0
18722,557,0,0
18725,484,0,0
18727,440,0,0
18730,454,0,0
18732,494,0,0
18735,555,0,0
18737,585,0,0
18740,531,0,0
18742,461,0,0
18745,438,0,0
18747,462,0,0
18750,513,0,0
18752,567,0,0
18755,574,0,0
18757,499,0,0
18760,442,0,0
18762,439,0,0
18765,478,0,0
18767,535,0,0
18770,579,0,0
18772,552,0,0
18775,475,0,0
18777,434,0,0
18780,443,0,0
18782,493,0,0
18785,550,0,0
18787,587,0,0
18790,532,0,0
18792,466,0,0
18795,444,0,0
18797,464,0,0
18800,515,0,0
18802,568,0,0
18805,570,0,0
18807,501,0,0
18810,447,0,0
18812,446,0,0
18815,482,0,0
18817,538,0,0
18820,584,0,0
18822,542,0,0
18825,466,0,0
18827,425,0,0
18830,437,0,0
18832,488,0,0
18835,547,0,0
18837,577,0,0
18840,520,0,0
18842,442,0,0
18845,422,0,0
18847,450,0,0
18850,508,0,0
18852,570,0,0
18855,570,0,0
18857,490,0,0
18860,435,0,0
18862,432,0,0
18865,471,0,0
18867,532,0,0
18870,576,0,0
18872,537,0,0
18875,460,0,0
18877,420,0,0
18880,439,0,0
18882,495,0,0
18885,557,0,0
18887,587,0,0
18890,530,0,0
18892,467,0,0
18895,446,0,0
18897,466,0,0
18900,520,0,0
18902,576,0,0
18905,573,0,0
18907,505,0,0
18910,451,0,0
18913,453,0,0
18915,492,0,0
18918,549,0,0
18920,597,0,0
18923,553,0,0
18925,477,0,0
18928,443,0,0
18930,461,0,0
18933,518,0,0
18935,579,0,0
18938,597,0,0
18940,535,0,0
18943,475,0,0
18945,461,0,0
18948,487,0,0
18950,545,0,0
18953,597,0,0
18955,583,0,0
18958,501,0,0
18960,440,0,0
18963,439,0,0
18965,478,0,0
18968,537,0,0
18970,587,0,0
18973,549,0,0
18975,483,0,0
18978,454,0,0
18980,472,0,0
18983,525,0,0
18985,579,0,0
18988,596,0,0
18990,526,0,0
18993,457,0,0
18995,441,0,0
18998,476,0,0
19000,536,0,0
19003,594,0,0
19005,579,0,0
19008,501,0,0
19010,451,0,0
19013,447,0,0
19015,489,0,0
19018,544,0,0
19020,590,0,0
19023,541,0,0
19025,472,0,0
19028,441,0,0
19030,463,0,0
19033,521,0,0
19035,575,0,0
19038,596,0,0
19040,518,0,0
19043,446,0,0
19045,423,0,0
19048,447,0,0
19050,507,0,0
19053,573,0,0
19055,581,0,0
19058,545,0,0
19060,549,0,0
19063,619,0,0
19065,738,0,0
19068,868,0,0
19070,976,0,0
19073,988,0,0
19075,960,0,0
19078,912,0,0
19080,862,0,0
19083,799,0,0
19085,728,0,0
19088,633,0,0
19090,487,0,0
19093,387,0,0
19095,379,0,0
19098,449,0,0
19100,550,0,0
19103,638,0,0
19105,635,0,0
19108,554,0,0
19110,487,0,0
19113,474,0,0
19115,498,0,0
19118,541,0,0
19120,569,0,0
19123,516,0,0
19125,449,0,0
19128,419,0,0
19130,444,0,0
19133,499,0,0
19135,557,0,0
19138,569,0,0
19140,503,0,0
19143,442,0,0
19145,425,0,0
19148,461,0,0
19150,518,0,0
19153,569,0,0
19155,547,0,0
19158,471,0,0
19160,424,0,0
19163,429,0,0
19165,479,0,0
19168,539,0,0
19170,577,0,0
19173,528,0,0
19175,452,0,0
19178,431,0,0
19180,451,0,0
19183,509,0,0
19185,564,0,0
19188,573,0,0
19190,501,0,0
19193,445,0,0
19195,431,0,0
19198,469,0,0
19200,525,0,0
19203,577,0,0
19205,555,0,0
19208,478,0,0
19210,433,0,0
19213,441,0,0
19215,493,0,0
19218,550,0,0
19221,588,0,0
19223,533,0,0
19226,464,0,0
19228,441,0,0
19231,469,0,0
19233,521,0,0
19236,575,0,0
19238,579,0,0
19241,509,0,0
19243,449,0,0
19246,447,0,0
19248,491,0,0
19251,549,0,0
19253,597,0,0
19256,570,0,0
19258,491,0,0
19261,454,0,0
19263,469,0,0
19266,519,0,0
19268,585,0,0
19271,615,0,0
19273,560,0,0
19276,486,0,0
19278,464,0,0
19281,493,0,0
19283,555,0,0
19286,615,0,0
19288,615,0,0
19291,545,0,0
19293,483,0,0
19296,481,0,0
19298,530,0,0
19301,592,0,0
19303,640,0,0
19306,605,0,0
19308,528,0,0
19311,481,0,0
19313,490,0,0
19316,542,0,0
19318,599,0,0
19321,625,0,0
19323,561,0,0
19326,488,0,0
19328,459,0,0
19331,487,0,0
19333,540,0,0
19336,591,0,0
19338,588,0,0
19341,510,0,0
19343,454,0,0
19346,443,0,0
19348,483,0,0
19351,536,0,0
19353,579,0,0
19356,538,0,0
19358,463,0,0
19361,424,0,0
19363,434,0,0
19366,485,0,0
19368,545,0,0
19371,569,0,0
19373,504,0,0
19376,435,0,0
19378,418,0,0
19381,449,0,0
19383,505,0,0
19386,560,0,0
19388,552,0,0
19391,472,0,0
19393,417,0,0
19396,415,0,0
19398,460,0,0
19401,523,0,0
19403,568,0,0
19406,529,0,0
19408,451,0,0
19411,411,0,0
19413,427,0,0
19416,479,0,0
19418,540,0,0
19421,565,0,0
19423,501,0,0
19426,436,0,0
19428,419,0,0
19431,452,0,0
19433,511,0,0
19436,569,0,0
19438,561,0,0
19441,483,0,0
19443,431,0,0
19446,429,0,0
19448,475,0,0
19451,536,0,0
19453,577,0,0
19456,532,0,0
19458,456,0,0
19461,421,0,0
19463,448,0,0
19466,502,0,0
19468,566,0,0
19471,581,0,0
19474,516,0,0
19476,451,0,0
19479,432,0,0
19481,469,0,0
19484,525,0,0
19486,583,0,0
19489,570,0,0
19491,490,0,0
19494,441,0,0
19496,445,0,0
19499,489,0,0
19501,549,0,0
19504,589,0,0
19506,543,0,0
19509,471,0,0
19511,436,0,0
19514,454,0,0
19516,509,0,0
19519,565,0,0
19521,582,0,0
19524,518,0,0
19526,455,0,0
19529,437,0,0
19531,470,0,0
19534,529,0,0
19536,582,0,0
19539,566,0,0
19541,485,0,0
19544,436,0,0
19546,439,0,0
19549,489,0,0
19551,547,0,0
19554,585,0,0
19556,536,0,0
19559,457,0,0
19561,428,0,0
19564,451,0,0
19566,508,0,0
19569,565,0,0
19571,577,0,0
19574,503,0,0
19576,442,0,0
19579,434,0,0
19581,472,0,0
19584,528,0,0
19586,580,0,0
19589,561,0,0
19591,480,0,0
19594,434,0,0
19596,443,0,0
19599,488,0,0
19601,549,0,0
19604,584,0,0
19606,531,0,0
19609,454,0,0
19611,427,0,0
19614,458,0,0
19616,509,0,0
19619,570,0,0
19621,582,0,0
19624,503,0,0
19626,442,0,0
19629,431,0,0
19631,473,0,0
19634,537,0,0
19636,585,0,0
19639,560,0,0
19641,475,0,0
19644,420,0,0
19646,429,0,0
19649,488,0,0
19651,553,0,0
19654,594,0,0
19656,539,0,0
19659,460,0,0
19661,429,0,0
19664,452,0,0
19666,512,0,0
19669,569,0,0
19671,581,0,0
19674,510,0,0
19676,447,0,0
19679,437,0,0
19681,474,0,0
19684,534,0,0
19686,585,0,0
19689,557,0,0
19691,478,0,0
19694,437,0,0
19696,445,0,0
19699,498,0,0
19701,557,0,0
19704,591,0,0
19706,530,0,0
19709,454,0,0
19711,427,0,0
19714,455,0,0
19716,514,0,0
19719,577,0,0
19721,579,0,0
19724,508,0,0
19726,445,0,0
19729,440,0,0
19731,479,0,0
19734,541,0,0
19736,591,0,0
19739,559,0,0
19742,475,0,0
19744,433,0,0
19747,447,0,0
19749,503,0,0
19752,570,0,0
19754,598,0,0
19757,538,0,0
19759,467,0,0
19762,439,0,0
19764,467,0,0
19767,526,0,0
19769,587,0,0
19772,590,0,0
19774,516,0,0
19777,459,0,0
19779,455,0,0
19782,495,0,0
19784,551,0,0
19787,588,0,0
19789,545,0,0
19792,463,0,0
19794,426,0,0
19797,441,0,0
19799,500,0,0
19802,569,0,0
19804,602,0,0
19807,543,0,0
19809,466,0,0
19812,445,0,0
19814,477,0,0
19817,532,0,0
19819,591,0,0
19822,586,0,0
19824,504,0,0
19827,444,0,0
19829,440,0,0
19832,484,0,0
19834,543,0,0
19837,587,0,0
19839,548,0,0
19842,469,0,0
19844,435,0,0
19847,457,0,0
19849,509,0,0
19852,567,0,0
19854,591,0,0
19857,527,0,0
19859,449,0,0
19862,434,0,0
19864,468,0,0
19867,525,0,0
19869,576,0,0
19872,564,0,0
19874,474,0,0
19877,418,0,0
19879,423,0,0
19882,479,0,0
19884,569,0,0
19887,659,0,0
19889,676,0,0
19892,671,0,0
19894,708,0,0
19897,793,0,0
19899,914,0,0
19902,1013,0,0
19904,1012,0,0
19907,957,0,0
19909,828,0,0
19912,687,0,0
19914,591,0,0
19917,545,0,0
19919,537,0,0
19922,503,0,0
19924,445,0,0
19927,428,0,0
19929,469,0,0
19932,544,0,0
19934,617,0,0
19937,644,0,0
19939,580,0,0
19942,480,0,0
19944,431,0,0
19947,438,0,0
19949,486,0,0
19952,546,0,0
19954,567,0,0
19957,499,0,0
19959,428,0,0
19962,411,0,0
19964,447,0,0
19967,505,0,0
19969,564,0,0
19972,549,0,0
19974,469,0,0
19977,418,0,0
19979,426,0,0
19982,471,0,0
19984,532,0,0
19987,573,0,0
19989,525,0,0
19992,445,0,0
19994,411,0,0
19997,434,0,0
19999,493,0,0
20002,554,0,0
20004,575,0,0
20007,501,0,0
20009,433,0,0
20012,418,0,0
20014,452,0,0
20017,514,0,0
20020,576,0,0
20022,560,0,0
20025,475,0,0
20027,424,0,0
20030,430,0,0
20032,477,0,0
20035,540,0,0
20037,584,0,0
20040,529,0,0
20042,449,0,0
20045,413,0,0
20047,436,0,0
20050,500,0,0
20052,565,0,0
20055,577,0,0
20057,499,0,0
20060,429,0,0
20062,416,0,0
20065,457,0,0
20067,525,0,0
20070,585,0,0
20072,569,0,0
20075,491,0,0
20077,448,0,0
20080,452,0,0
20082,502,0,0
20085,566,0,0
20087,605,0,0
20090,549,0,0
20092,474,0,0
20095,446,0,0
20097,480,0,0
20100,540,0,0
20102,600,0,0
20105,612,0,0
20107,541,0,0
20110,470,0,0
20112,464,0,0
20115,509,0,0
20117,576,0,0
20120,629,0,0
20122,603,0,0
20125,522,0,0
20127,478,0,0
20130,487,0,0
20132,541,0,0
20135,606,0,0
20137,646,0,0
20140,581,0,0
20142,498,0,0
20145,472,0,0
20147,495,0,0
20150,556,0,0
20152,617,0,0
20155,617,0,0
20157,536,0,0
20160,467,0,0
20162,450,0,0
20165,488,0,0
20167,546,0,0
20170,595,0,0
20172,559,0,0
20175,477,0,0
20177,428,0,0
20180,436,0,0
20182,488,0,0
20185,550,0,0
20187,582,0,0
20190,516,0,0
20192,435,0,0
20195,406,0,0
20197,434,0,0
20200,493,0,0
20202,554,0,0
20205,554,0,0
20207,470,0,0
20210,414,0,0
20212,405,0,0
20215,455,0,0
20217,521,0,0
20220,572,0,0
20222,534,0,0
20225,442,0,0
20227,395,0,0
20230,413,0,0
20232,467,0,0
20235,538,0,0
20237,571,0,0
20240,499,0,0
20242,423,0,0
20245,396,0,0
20247,432,0,0
20250,499,0,0
20252,566,0,0
20255,564,0,0
20257,485,0,0
20260,430,0,0
20263,424,0,0
20265,467,0,0
20268,534,0,0
20270,581,0,0
20273,540,0,0
20275,460,0,0
20278,421,0,0
20280,438,0,0
20283,495,0,0
20285,558,0,0
20288,585,0,0
20290,517,0,0
20293,446,0,0
20295,422,0,0
20298,460,0,0
20300,524,0,0
20303,584,0,0
20305,574,0,0
20308,485,0,0
20310,422,0,0
20313,424,0,0
20315,471,0,0
20318,541,0,0
20320,589,0,0
20323,546,0,0
20325,457,0,0
20328,419,0,0
20330,439,0,0
20333,498,0,0
20335,567,0,0
20338,588,0,0
20340,515,0,0
20343,437,0,0
20345,416,0,0
20348,452,0,0
20350,519,0,0
20353,586,0,0
20355,572,0,0
20358,489,0,0
20360,429,0,0
20363,433,0,0
20365,475,0,0
20368,547,0,0
20370,594,0,0
20373,548,0,0
20375,467,0,0
20378,429,0,0
20380,448,0,0
20383,511,0,0
20385,573,0,0
20388,592,0,0
20390,521,0,0
20393,447,0,0
20395,428,0,0
20398,470,0,0
20400,535,0,0
20403,587,0,0
20405,574,0,0
20408,491,0,0
20410,435,0,0
20413,444,0,0
20415,490,0,0
20418,555,0,0
20420,599,0,0
20423,552,0,0
20425,468,0,0
20428,432,0,0
20430,455,0,0
20433,515,0,0
20435,584,0,0
20438,596,0,0
20440,519,0,0
20443,446,0,0
20445,430,0,0
20448,469,0,0
20450,537,0,0
20453,596,0,0
20455,581,0,0
20458,492,0,0
20460,438,0,0
20463,450,0,0
20465,497,0,0
20468,560,0,0
20470,601,0,0
20473,544,0,0
20475,466,0,0
20478,434,0,0
20480,460,0,0
20483,521,0,0
20485,586,0,0
20488,599,0,0
20490,517,0,0
20493,444,0,0
20495,436,0,0
20498,477,0,0
20500,544,0,0
20503,598,0,0
20505,572,0,0
20508,492,0,0
20510,438,0,0
20513,451,0,0
20515,499,0,0
20518,564,0,0
20521,604,0,0
20523,546,0,0
20526,468,0,0
20528,435,0,0
20531,461,0,0
20533,525,0,0
20536,582,0,0
20538,597,0,0
20541,517,0,0
20543,446,0,0
20546,437,0,0
20548,475,0,0
20551,544,0,0
20553,600,0,0
20556,573,0,0
20558,487,0,0
20561,440,0,0
20563,450,0,0
20566,509,0,0
20568,571,0,0
20571,610,0,0
20573,549,0,0
20576,469,0,0
20578,443,0,0
20581,473,0,0
20583,538,0,0
20586,601,0,0
20588,606,0,0
20591,525,0,0
20593,459,0,0
20596,442,0,0
20598,480,0,0
20601,537,0,0
20603,589,0,0
20606,558,0,0
20608,476,0,0
20611,440,0,0
20613,451,0,0
20616,514,0,0
20618,578,0,0
20621,612,0,0
20623,547,0,0
20626,473,0,0
20628,443,0,0
20631,473,0,0
20633,533,0,0
20636,594,0,0
20638,597,0,0
20641,513,0,0
20643,449,0,0
20646,442,0,0
20648,484,0,0
20651,552,0,0
20653,600,0,0
20656,564,0,0
20658,483,0,0
20661,441,0,0
20663,456,0,0
20666,515,0,0
20668,576,0,0
20671,610,0,0
20673,539,0,0
20676,463,0,0
20678,432,0,0
20681,459,0,0
20683,513,0,0
20686,571,0,0
20688,566,0,0
20691,489,0,0
20693,448,0,0
20696,479,0,0
20698,574,0,0
20701,694,0,0
20703,818,0,0
20706,850,0,0
20708,837,0,0
20711,865,0,0
20713,929,0,0
20716,987,0,0
20718,995,0,0
20721,925,0,0
20723,726,0,0
20726,528,0,0
20728,414,0,0
20731,405,0,0
20733,469,0,0
20736,558,0,0
20738,589,0,0
20741,541,0,0
20743,506,0,0
20746,504,0,0
20748,541,0,0
20751,585,0,0
20754,611,0,0
20756,547,0,0
20759,455,0,0
20761,413,0,0
20764,434,0,0
20766,495,0,0
20769,562,0,0
20771,587,0,0
20774,514,0,0
20776,442,0,0
20779,421,0,0
20781,459,0,0
20784,518,0,0
20786,578,0,0
20789,565,0,0
20791,484,0,0
20794,431,0,0
20796,437,0,0
20799,483,0,0
20801,549,0,0
20804,590,0,0
20806,539,0,0
20809,454,0,0
20811,422,0,0
20814,448,0,0
20816,509,0,0
20819,582,0,0
20821,594,0,0
20824,519,0,0
20826,445,0,0
20829,433,0,0
20831,468,0,0
20834,534,0,0
20836,589,0,0
20839,572,0,0
20841,487,0,0
20844,432,0,0
20846,438,0,0
20849,491,0,0
20851,560,0,0
20854,609,0,0
20856,549,0,0
20859,467,0,0
20861,434,0,0
20864,455,0,0
20866,518,0,0
20869,585,0,0
20871,603,0,0
20874,531,0,0
20876,458,0,0
20879,446,0,0
20881,483,0,0
20884,551,0,0
20886,607,0,0
20889,591,0,0
20891,504,0,0
20894,451,0,0
20896,457,0,0
20899,511,0,0
20901,582,0,0
20904,629,0,0
20906,572,0,0
20909,488,0,0
20911,454,0,0
20914,479,0,0
20916,545,0,0
20919,609,0,0
20921,627,0,0
20924,555,0,0
20926,492,0,0
20929,478,0,0
20931,521,0,0
20934,585,0,0
20936,644,0,0
20939,619,0,0
20941,537,0,0
20944,491,0,0
20946,499,0,0
20949,558,0,0
20951,616,0,0
20954,653,0,0
20956,591,0,0
20959,502,0,0
20961,469,0,0
20964,497,0,0
20966,562,0,0
20969,616,0,0
20971,622,0,0
20974,534,0,0
20976,461,0,0
20979,442,0,0
20981,481,0,0
20984,540,0,0
20986,591,0,0
20989,560,0,0
20991,472,0,0
20994,424,0,0
20996,435,0,0
20999,486,0,0
21001,552,0,0
21004,588,0,0
21006,527,0,0
21009,443,0,0
21011,414,0,0
21014,445,0,0
21016,505,0,0
21019,565,0,0
21022,567,0,0
21024,482,0,0
21027,417,0,0
21029,412,0,0
21032,460,0,0
21034,530,0,0
21037,584,0,0
21039,547,0,0
21042,455,0,0
21044,407,0,0
21047,423,0,0
21049,476,0,0
21052,546,0,0
21054,582,0,0
21057,519,0,0
21059,439,0,0
21062,413,0,0
21064,437,0,0
21067,497,0,0
21069,559,0,0
21072,561,0,0
21074,474,0,0
21077,413,0,0
21079,412,0,0
21082,460,0,0
21084,528,0,0
21087,584,0,0
21089,544,0,0
21092,457,0,0
21094,410,0,0
21097,427,0,0
21099,487,0,0
21102,554,0,0
21104,587,0,0
21107,516,0,0
21109,436,0,0
21112,413,0,0
21114,450,0,0
21117,516,0,0
21119,581,0,0
21122,577,0,0
21124,494,0,0
21127,437,0,0
21129,436,0,0
21132,480,0,0
21134,545,0,0
21137,599,0,0
21139,556,0,0
21142,467,0,0
21144,422,0,0
21147,442,0,0
21149,496,0,0
21152,569,0,0
21154,602,0,0
21157,530,0,0
21159,454,0,0
21162,432,0,0
21164,467,0,0
21167,528,0,0
21169,591,0,0
21172,577,0,0
21174,493,0,0
21177,434,0,0
21179,433,0,0
21182,482,0,0
21184,552,0,0
21187,601,0,0
21189,554,0,0
21192,468,0,0
21194,430,0,0
21197,449,0,0
21199,508,0,0
21202,574,0,0
21204,597,0,0
21207,526,0,0
21209,447,0,0
21212,430,0,0
21214,467,0,0
21217,531,0,0
21219,595,0,0
21222,583,0,0
21224,492,0,0
21227,436,0,0
21229,432,0,0
21232,487,0,0
21234,554,0,0
21237,602,0,0
21239,552,0,0
21242,471,0,0
21244,432,0,0
21247,453,0,0
21249,513,0,0
21252,576,0,0
21254,602,0,0
21257,523,0,0
21259,449,0,0
21262,432,0,0
21264,468,0,0
21267,533,0,0
21269,593,0,0
21272,580,0,0
21274,495,0,0
21277,439,0,0
21279,445,0,0
21282,492,0,0
21284,559,0,0
21287,605,0,0
21289,556,0,0
21292,471,0,0
21294,440,0,0
21297,457,0,0
21300,514,0,0
21302,576,0,0
21305,592,0,0
21307,515,0,0
21310,445,0,0
21312,436,0,0
21315,473,0,0
21317,543,0,0
21320,598,0,0
21322,576,0,0
21325,490,0,0
21327,440,0,0
21330,440,0,0
21332,494,0,0
21335,559,0,0
21337,603,0,0
21340,549,0,0
21342,465,0,0
21345,434,0,0
21347,459,0,0
21350,520,0,0
21352,583,0,0
21355,598,0,0
21357,519,0,0
21360,451,0,0
21362,443,0,0
21365,485,0,0
21367,555,0,0
21370,615,0,0
21372,594,0,0
21375,502,0,0
21377,447,0,0
21380,451,0,0
21382,493,0,0
21385,556,0,0
21387,587,0,0
21390,530,0,0
21392,453,0,0
21395,433,0,0
21397,464,0,0
21400,532,0,0
21402,596,0,0
21405,605,0,0
21407,526,0,0
21410,455,0,0
21412,444,0,0
21415,485,0,0
21417,548,0,0
21420,599,0,0
21422,573,0,0
21425,484,0,0
21427,440,0,0
21430,448,0,0
21432,502,0,0
21435,567,0,0
21437,605,0,0
21440,546,0,0
21442,461,0,0
21445,429,0,0
21447,458,0,0
21450,523,0,0
21452,583,0,0
21455,592,0,0
21457,511,0,0
21460,445,0,0
21462,441,0,0
21465,478,0,0
21467,537,0,0
21470,583,0,0
21472,544,0,0
21475,454,0,0
21477,415,0,0
21480,446,0,0
21482,530,0,0
21485,639,0,0
21487,733,0,0
21490,733,0,0
21492,729,0,0
21495,768,0,0
21497,867,0,0
21500,985,0,0
21502,1010,0,0
21505,993,0,0
21507,865,0,0
21510,691,0,0
21512,556,0,0
21515,498,0,0
21517,501,0,0
21520,535,0,0
21522,515,0,0
21525,462,0,0
21527,462,0,0
21530,501,0,0
21532,565,0,0
21535,620,0,0
21537,633,0,0
21540,547,0,0
21542,450,0,0
21545,420,0,0
21547,443,0,0
21550,510,0,0
21553,574,0,0
21555,577,0,0
21558,495,0,0
21560,432,0,0
21563,425,0,0
21565,470,0,0
21568,536,0,0
21570,581,0,0
21573,537,0,0
21575,453,0,0
21578,414,0,0
21580,438,0,0
21583,494,0,0
21585,562,0,0
21588,591,0,0
21590,520,0,0
21593,447,0,0
21595,421,0,0
21598,455,0,0
21600,518,0,0
21603,579,0,0
21605,571,0,0
21608,488,0,0
21610,430,0,0
21613,436,0,0
21615,478,0,0
21618,544,0,0
21620,596,0,0
21623,550,0,0
21625,471,0,0
21628,428,0,0
21630,445,0,0
21633,504,0,0
21635,570,0,0
21638,591,0,0
21640,518,0,0
21643,447,0,0
21645,430,0,0
21648,467,0,0
21650,530,0,0
21653,589,0,0
21655,577,0,0
21658,491,0,0
21660,435,0,0
21663,441,0,0
21665,493,0,0
21668,564,0,0
21670,612,0,0
21673,561,0,0
21675,477,0,0
21678,441,0,0
21680,465,0,0
21683,529,0,0
21685,597,0,0
21688,617,0,0
21690,549,0,0
21693,477,0,0
21695,463,0,0
21698,499,0,0
21700,565,0,0
21703,624,0,0
21705,608,0,0
21708,531,0,0
21710,476,0,0
21713,486,0,0
21715,540,0,0
21718,601,0,0
21720,650,0,0
21723,597,0,0
21725,515,0,0
21728,479,0,0
21730,504,0,0
21733,569,0,0
21735,633,0,0
21738,652,0,0
21740,576,0,0
21743,500,0,0
21745,478,0,0
21748,511,0,0
21750,569,0,0
21753,625,0,0
21755,599,0,0
21758,512,0,0
21760,456,0,0
21763,459,0,0
21765,511,0,0
21768,569,0,0
21770,603,0,0
21773,548,0,0
21775,458,0,0
21778,421,0,0
21780,445,0,0
21783,500,0,0
21785,562,0,0
21788,573,0,0
21790,497,0,0
21793,427,0,0
21795,418,0,0
21798,456,0,0
21800,518,0,0
21803,573,0,0
21805,545,0,0
21808,459,0,0
21811,406,0,0
21813,413,0,0
21816,468,0,0
21818,538,0,0
21821,582,0,0
21823,522,0,0
21826,433,0,0
21828,406,0,0
21831,433,0,0
21833,500,0,0
21836,564,0,0
21838,566,0,0
21841,484,0,0
21843,417,0,0
21846,404,0,0
21848,453,0,0
21851,522,0,0
21853,577,0,0
21856,551,0,0
21858,467,0,0
21861,423,0,0
21863,433,0,0
21866,487,0,0
21868,554,0,0
21871,588,0,0
21873,528,0,0
21876,453,0,0
21878,422,0,0
21881,451,0,0
21883,512,0,0
21886,578,0,0
21888,579,0,0
21891,501,0,0
21893,439,0,0
21896,438,0,0
21898,481,0,0
21901,542,0,0
21903,594,0,0
21906,560,0,0
21908,478,0,0
21911,433,0,0
21913,445,0,0
21916,502,0,0
21918,565,0,0
21921,600,0,0
21923,537,0,0
21926,461,0,0
21928,432,0,0
21931,462,0,0
21933,521,0,0
21936,587,0,0
21938,583,0,0
21941,504,0,0
21943,440,0,0
21946,437,0,0
21948,478,0,0
21951,542,0,0
21953,598,0,0
21956,560,0,0
21958,479,0,0
21961,437,0,0
21963,449,0,0
21966,504,0,0
21968,570,0,0
21971,598,0,0
21973,534,0,0
21976,458,0,0
21978,436,0,0
21981,465,0,0
21983,529,0,0
21986,585,0,0
21988,580,0,0
21991,499,0,0
21993,444,0,0
21996,439,0,0
21998,488,0,0
22001,549,0,0
22003,602,0,0
22006,559,0,0
22008,477,0,0
22011,435,0,0
22013,452,0,0
22016,510,0,0
22018,571,0,0
22021,599,0,0
22023,531,0,0
22026,455,0,0
22028,437,0,0
22031,468,0,0
22033,530,0,0
22036,590,0,0
22038,583,0,0
22041,499,0,0
22043,437,0,0
22046,442,0,0
22048,488,0,0
22051,556,0,0
22053,603,0,0
22056,553,0,0
22058,471,0,0
22061,429,0,0
22063,448,0,0
22066,512,0,0
22068,571,0,0
22071,595,0,0
22074,516,0,0
22076,445,0,0
22079,426,0,0
22081,463,0,0
22084,530,0,0
22086,592,0,0
22089,578,0,0
22091,492,0,0
22094,436,0,0
22096,436,0,0
22099,485,0,0
22101,553,0,0
22104,599,0,0
22106,551,0,0
22109,465,0,0
22111,430,0,0
22114,447,0,0
22116,508,0,0
22119,578,0,0
22121,603,0,0
22124,534,0,0
22126,459,0,0
22129,443,0,0
22131,481,0,0
22134,543,0,0
22136,603,0,0
22139,586,0,0
22141,504,0,0
22144,449,0,0
22146,459,0,0
22149,509,0,0
22151,576,0,0
22154,621,0,0
22156,570,0,0
22159,484,0,0
22161,444,0,0
22164,459,0,0
22166,509,0,0
22169,568,0,0
22171,587,0,0
22174,516,0,0
22176,452,0,0
22179,445,0,0
22181,486,0,0
22184,556,0,0
22186,614,0,0
22189,592,0,0
22191,507,0,0
22194,455,0,0
22196,455,0,0
22199,507,0,0
22201,569,0,0
22204,604,0,0
22206,553,0,0
22209,474,0,0
22211,442,0,0
22214,470,0,0
22216,524,0,0
22219,583,0,0
22221,594,0,0
22224,518,0,0
22226,453,0,0
22229,442,0,0
22231,476,0,0
22234,542,0,0
22236,595,0,0
22239,574,0,0
22241,490,0,0
22244,435,0,0
22246,436,0,0
22249,481,0,0
22251,545,0,0
22254,579,0,0
22256,527,0,0
22259,460,0,0
22261,457,0,0
22264,524,0,0
22266,633,0,0
22269,763,0,0
22271,843,0,0
22274,836,0,0
22276,835,0,0
22279,881,0,0
22281,952,0,0
22284,988,0,0
22286,973,0,0
22289,832,0,0
22291,623,0,0
22294,470,0,0
22296,407,0,0
22299,441,0,0
22301,514,0,0
22304,585,0,0
22306,569,0,0
22309,521,0,0
22311,505,0,0
22314,521,0,0
22316,561,0,0
22319,603,0,0
22321,589,0,0
22324,500,0,0
22326,431,0,0
22329,422,0,0
22331,466,0,0
22334,531,0,0
22336,587,0,0
22339,557,0,0
22341,473,0,0
22344,424,0,0
22346,437,0,0
22349,486,0,0
22351,550,0,0
22354,585,0,0
22356,524,0,0
22359,446,0,0
22361,422,0,0
22364,447,0,0
22366,508,0,0
22369,573,0,0
22371,577,0,0
22374,496,0,0
22377,436,0,0
22379,433,0,0
22382,472,0,0
22384,535,0,0
22387,587,0,0
22389,553,0,0
22392,475,0,0
22394,430,0,0
22397,443,0,0
22399,504,0,0
22402,566,0,0
22404,597,0,0
22407,533,0,0
22409,458,0,0
22412,431,0,0
22414,463,0,0
22417,524,0,0
22419,584,0,0
22422,582,0,0
22424,501,0,0
22427,441,0,0
22429,441,0,0
22432,487,0,0
22434,557,0,0
22437,603,0,0
22439,567,0,0
22442,484,0,0
22444,443,0,0
22447,461,0,0
22449,518,0,0
22452,581,0,0
22454,613,0,0
22457,547,0,0
22459,468,0,0
22462,447,0,0
22464,483,0,0
22467,548,0,0
22469,611,0,0
22472,610,0,0
22474,527,0,0
22477,466,0,0
22479,466,0,0
22482,514,0,0
22484,583,0,0
22487,629,0,0
22489,589,0,0
22492,504,0,0
22494,465,0,0
22497,484,0,0
22499,547,0,0
22502,615,0,0
22504,638,0,0
22507,572,0,0
22509,500,0,0
22512,482,0,0
22514,519,0,0
22517,575,0,0
22519,637,0,0
22522,619,0,0
22524,537,0,0
22527,473,0,0
22529,474,0,0
22532,514,0,0
22534,575,0,0
22537,614,0,0
22539,563,0,0
22542,480,0,0
22544,438,0,0
22547,457,0,0
22549,507,0,0
22552,570,0,0
22554,589,0,0
22557,519,0,0
22559,445,0,0
22562,422,0,0
22564,460,0,0
22567,515,0,0
22569,570,0,0
22572,558,0,0
22574,476,0,0
22577,424,0,0
22579,427,0,0
22582,477,0,0
22584,536,0,0
22587,579,0,0
22589,527,0,0
22592,447,0,0
22594,409,0,0
22597,432,0,0
22599,486,0,0
22602,549,0,0
22604,571,0,0
22607,494,0,0
22609,426,0,0
22612,407,0,0
22614,448,0,0
22617,509,0,0
22619,564,0,0
22622,550,0,0
22625,469,0,0
22627,419,0,0
22630,423,0,0
22632,477,0,0
22635,536,0,0
22637,579,0,0
22640,527,0,0
22642,450,0,0
22645,414,0,0
22647,443,0,0
22650,499,0,0
22652,562,0,0
22655,580,0,0
22657,508,0,0
22660,441,0,0
22662,425,0,0
22665,464,0,0
22667,524,0,0
22670,577,0,0
22672,558,0,0
22675,476,0,0
22677,425,0,0
22680,436,0,0
22682,486,0,0
22685,551,0,0
22687,586,0,0
22690,535,0,0
22692,452,0,0
22695,424,0,0
22697,450,0,0
22700,509,0,0
22702,570,0,0
22705,576,0,0
22707,503,0,0
22710,441,0,0
22712,429,0,0
22715,467,0,0
22717,531,0,0
22720,584,0,0
22722,566,0,0
22725,480,0,0
22727,436,0,0
22730,440,0,0
22732,489,0,0
22735,553,0,0
22737,588,0,0
22740,528,0,0
22742,452,0,0
22745,426,0,0
22747,453,0,0
22750,514,0,0
22752,570,0,0
22755,579,0,0
22757,503,0,0
22760,440,0,0
22762,430,0,0
22765,474,0,0
22767,534,0,0
22770,583,0,0
22772,559,0,0
22775,476,0,0
22777,430,0,0
22780,440,0,0
22782,494,0,0
22785,554,0,0
22787,585,0,0
22790,525,0,0
22792,448,0,0
22795,424,0,0
22797,451,0,0
22800,511,0,0
22802,571,0,0
22805,575,0,0
22807,496,0,0
22810,438,0,0
22812,428,0,0
22815,471,0,0
22817,535,0,0
22820,588,0,0
22822,558,0,0
22825,481,0,0
22827,434,0,0
22830,447,0,0
22832,498,0,0
22835,558,0,0
22837,587,0,0
22840,525,0,0
22842,452,0,0
22845,435,0,0
22847,464,0,0
22850,523,0,0
22852,579,0,0
22855,580,0,0
22857,506,0,0
22860,442,0,0
22862,438,0,0
22865,483,0,0
22867,542,0,0
22870,593,0,0
22872,562,0,0
22875,478,0,0
22877,435,0,0
22880,449,0,0
22882,503,0,0
22885,567,0,0
22887,595,0,0
22890,531,0,0
22892,462,0,0
22895,436,0,0
22897,471,0,0
22900,533,0,0
22902,591,0,0
22905,586,0,0
22908,512,0,0
22910,446,0,0
22913,437,0,0
22915,477,0,0
22918,533,0,0
22920,580,0,0
22923,542,0,0
22925,470,0,0
22928,434,0,0
22930,460,0,0
22933,516,0,0
22935,576,0,0
22938,600,0,0
22940,536,0,0
22943,464,0,0
22945,441,0,0
22948,472,0,0
22950,529,0,0
22953,584,0,0
22955,576,0,0
22958,498,0,0
22960,446,0,0
22963,440,0,0
22965,485,0,0
22968,540,0,0
22970,583,0,0
22973,544,0,0
22975,467,0,0
22978,430,0,0
22980,452,0,0
22983,503,0,0
22985,564,0,0
22988,588,0,0
22990,523,0,0
22993,454,0,0
22995,438,0,0
22998,465,0,0
23000,511,0,0
23003,557,0,0
23005,543,0,0
23008,477,0,0
23010,446,0,0
23013,482,0,0
23015,570,0,0
23018,684,0,0
23020,798,0,0
23023,816,0,0
23025,805,0,0
23028,837,0,0
23030,906,0,0
23033,962,0,0
23035,986,0,0
23038,915,0,0
23040,731,0,0
23043,553,0,0
23045,445,0,0
23048,429,0,0
23050,473,0,0
23053,546,0,0
23055,558,0,0
23058,513,0,0
23060,483,0,0
23063,496,0,0
23065,533,0,0
23068,576,0,0
23070,601,0,0
23073,538,0,0
23075,447,0,0
23078,407,0,0
23080,429,0,0
23083,488,0,0
23085,553,0,0
23088,569,0,0
23090,494,0,0
23093,421,0,0
23095,404,0,0
23098,447,0,0
23100,505,0,0
23103,564,0,0
23105,547,0,0
23108,468,0,0
23110,416,0,0
23113,421,0,0
23115,470,0,0
23118,531,0,0
23120,569,0,0
23123,517,0,0
23125,443,0,0
23128,415,0,0
23130,441,0,0
23133,498,0,0
23135,557,0,0
23138,572,0,0
23140,499,0,0
23143,440,0,0
23145,428,0,0
23148,469,0,0
23150,527,0,0
23153,580,0,0
23155,559,0,0
23158,480,0,0
23160,433,0,0
23163,442,0,0
23166,493,0,0
23168,550,0,0
23171,587,0,0
23173,535,0,0
23176,462,0,0
23178,432,0,0
23181,455,0,0
23183,515,0,0
23186,572,0,0
23188,582,0,0
23191,508,0,0
23193,448,0,0
23196,439,0,0
23198,480,0,0
23201,542,0,0
23203,596,0,0
23206,569,0,0
23208,494,0,0
23211,451,0,0
23213,464,0,0
23216,512,0,0
23218,576,0,0
23221,610,0,0
23223,553,0,0
23226,481,0,0
23228,459,0,0
23231,489,0,0
23233,552,0,0
23236,611,0,0
23238,618,0,0
23241,549,0,0
23243,488,0,0
23246,484,0,0
23248,525,0,0
23251,578,0,0
23253,627,0,0
23256,596,0,0
23258,527,0,0
23261,482,0,0
23263,497,0,0
23266,552,0,0
23268,606,0,0
23271,634,0,0
23273,573,0,0
23276,499,0,0
23278,472,0,0
23281,492,0,0
23283,543,0,0
23286,590,0,0
23288,588,0,0
23291,510,0,0
23293,452,0,0
23296,446,0,0
23298,487,0,0
23301,540,0,0
23303,585,0,0
23306,550,0,0
23308,469,0,0
23311,428,0,0
23313,441,0,0
23316,487,0,0
23318,547,0,0
23321,569,0,0
23323,506,0,0
23326,436,0,0
23328,417,0,0
23331,446,0,0
23333,505,0,0
23336,556,0,0
23338,549,0,0
23341,472,0,0
23343,411,0,0
23346,408,0,0
23348,455,0,0
23351,523,0,0
23353,576,0,0
23356,534,0,0
23358,459,0,0
23361,419,0,0
23363,431,0,0
23366,480,0,0
23368,540,0,0
23371,565,0,0
23373,500,0,0
23376,438,0,0
23378,412,0,0
23381,446,0,0
23383,501,0,0
23386,560,0,0
23388,549,0,0
23391,478,0,0
23393,434,0,0
23396,435,0,0
23398,479,0,0
23401,538,0,0
23403,581,0,0
23406,543,0,0
23408,466,0,0
23411,431,0,0
23413,445,0,0
23416,495,0,0
23418,552,0,0
23421,574,0,0
23423,514,0,0
23426,446,0,0
23428,433,0,0
23431,467,0,0
23434,519,0,0
23436,573,0,0
23439,559,0,0
23441,485,0,0
23444,440,0,0
23446,444,0,0
23449,488,0,0
23451,547,0,0
23454,583,0,0
23456,536,0,0
23459,461,0,0
23461,432,0,0
23464,452,0,0
23466,509,0,0
23469,566,0,0
23471,580,0,0
23474,516,0,0
23476,452,0,0
23479,439,0,0
23481,469,0,0
23484,525,0,0
23486,577,0,0
23489,560,0,0
23491,486,0,0
23494,441,0,0
23496,445,0,0
23499,487,0,0
23501,545,0,0
23504,583,0,0
23506,538,0,0
23509,468,0,0
23511,437,0,0
23514,455,0,0
23516,506,0,0
23519,559,0,0
23521,573,0,0
23524,509,0,0
23526,448,0,0
23529,440,0,0
23531,471,0,0
23534,525,0,0
23536,576,0,0
23539,556,0,0
23541,485,0,0
23544,444,0,0
23546,457,0,0
23549,495,0,0
23551,548,0,0
23554,576,0,0
23556,529,0,0
23559,456,0,0
23561,433,0,0
23564,464,0,0
23566,519,0,0
23569,576,0,0
23571,584,0,0
23574,516,0,0
23576,459,0,0
23579,447,0,0
23581,479,0,0
23584,534,0,0
23586,574,0,0
23589,556,0,0
23591,487,0,0
23594,443,0,0
23596,454,0,0
23599,504,0,0
23601,562,0,0
23604,596,0,0
23606,549,0,0
23609,479,0,0
23611,447,0,0
23614,463,0,0
23616,505,0,0
23619,556,0,0
23621,558,0,0
23624,499,0,0
23626,446,0,0
23629,446,0,0
23631,490,0,0
23634,548,0,0
23636,593,0,0
23639,566,0,0
23641,495,0,0
23644,451,0,0
23646,458,0,0
23649,506,0,0
23651,558,0,0
23654,587,0,0
23656,537,0,0
23659,466,0,0
23661,444,0,0
23664,465,0,0
23666,515,0,0
23669,566,0,0
23671,575,0,0
23674,510,0,0
23676,455,0,0
23679,447,0,0
23681,484,0,0
23684,537,0,0
23686,581,0,0
23689,553,0,0
23691,481,0,0
23694,443,0,0
23696,453,0,0
23699,494,0,0
23701,541,0,0
23704,563,0,0
23706,507,0,0
23709,448,0,0
23711,439,0,0
23714,490,0,0
23716,577,0,0
23719,677,0,0
23721,739,0,0
23724,741,0,0
23727,757,0,0
23729,821,0,0
23732,917,0,0
23734,1003,0,0
23737,1009,0,0
23739,926,0,0
23742,753,0,0
23744,607,0,0
23747,527,0,0
23749,506,0,0
23752,521,0,0
23754,542,0,0
23757,502,0,0
23759,466,0,0
23762,472,0,0
23764,520,0,0
23767,578,0,0
23769,614,0,0
23772,593,0,0
23774,503,0,0
23777,437,0,0
23779,423,0,0
23782,465,0,0
23784,518,0,0
23787,564,0,0
23789,534,0,0
23792,465,0,0
23794,424,0,0
23797,440,0,0
23799,487,0,0
23802,538,0,0
23804,562,0,0
23807,505,0,0
23809,438,0,0
23812,421,0,0
23814,451,0,0
23817,505,0,0
23819,557,0,0
23822,549,0,0
23824,481,0,0
23827,432,0,0
23829,432,0,0
23832,474,0,0
23834,533,0,0
23837,574,0,0
23839,542,0,0
23842,469,0,0
23844,438,0,0
23847,452,0,0
23849,500,0,0
23852,552,0,0
23854,572,0,0
23857,510,0,0
23859,450,0,0
23862,435,0,0
23864,474,0,0
23867,527,0,0
23869,574,0,0
23872,565,0,0
23874,494,0,0
23877,447,0,0
23879,448,0,0
23882,486,0,0
23884,540,0,0
23887,580,0,0
23889,539,0,0
23892,467,0,0
23894,440,0,0
23897,456,0,0
23899,511,0,0
23902,565,0,0
23904,589,0,0
23907,527,0,0
23909,465,0,0
23912,452,0,0
23914,485,0,0
23917,543,0,0
23919,590,0,0
23922,580,0,0
23924,513,0,0
23927,467,0,0
23929,478,0,0
23932,518,0,0
23934,573,0,0
23937,611,0,0
23939,571,0,0
23942,502,0,0
23944,477,0,0
23947,497,0,0
23949,548,0,0
23952,602,0,0
23954,619,0,0
23957,558,0,0
23959,499,0,0
23962,486,0,0
23964,522,0,0
23967,577,0,0
23969,621,0,0
23972,601,0,0
23974,525,0,0
23977,475,0,0
23979,474,0,0
23982,522,0,0
23984,572,0,0
23987,604,0,0
23989,559,0,0
23992,483,0,0
23994,452,0,0
23997,472,0,0
24000,513,0,0
24002,563,0,0
24005,571,0,0
24007,504,0,0
24010,445,0,0
24012,431,0,0
24015,462,0,0
24017,516,0,0
24020,566,0,0
24022,548,0,0
24025,474,0,0
24027,434,0,0
24030,434,0,0
24032,478,0,0
24035,531,0,0
24037,560,0,0
24040,515,0,0
24042,447,0,0
24045,429,0,0
24047,452,0,0
24050,504,0,0
24052,555,0,0
24055,563,0,0
24057,499,0,0
24060,445,0,0
24062,426,0,0
24065,459,0,0
24067,510,0,0
24070,558,0,0
24072,535,0,0
24075,465,0,0
24077,422,0,0
24080,435,0,0
24082,478,0,0
24085,538,0,0
24087,568,0,0
24090,517,0,0
24092,451,0,0
24095,423,0,0
24097,447,0,0
24100,502,0,0
24102,553,0,0
24105,558,0,0
24107,488,0,0
24110,434,0,0
24112,423,0,0
24115,460,0,0
24117,516,0,0
24120,560,0,0
24122,534,0,0
24125,468,0,0
24127,428,0,0
24130,439,0,0
24132,489,0,0
24135,548,0,0
24137,577,0,0
24140,524,0,0
24142,458,0,0
24145,439,0,0
24147,464,0,0
24150,515,0,0
24152,563,0,0
24155,564,0,0
24157,497,0,0
24160,447,0,0
24162,443,0,0
24165,483,0,0
24167,540,0,0
24170,581,0,0
24172,549,0,0
24175,478,0,0
24177,442,0,0
24180,455,0,0
24182,499,0,0
24185,553,0,0
24187,581,0,0
24190,525,0,0
24192,461,0,0
24195,442,0,0
24197,469,0,0
24200,521,0,0
24202,572,0,0
24205,565,0,0
24207,499,0,0
24210,445,0,0
24212,446,0,0
24215,481,0,0
24217,535,0,0
24220,578,0,0
24222,547,0,0
24225,478,0,0
24227,441,0,0
24230,457,0,0
24232,503,0,0
24235,553,0,0
24237,578,0,0
24240,519,0,0
24242,461,0,0
24245,440,0,0
24247,472,0,0
24250,524,0,0
24253,571,0,0
24255,567,0,0
24258,499,0,0
24260,452,0,0
24263,456,0,0
24265,505,0,0
24268,555,0,0
24270,598,0,0
24273,559,0,0
24275,489,0,0
24278,458,0,0
24280,479,0,0
24283,527,0,0
24285,578,0,0
24288,598,0,0
24290,535,0,0
24293,475,0,0
24295,467,0,0
24298,502,0,0
24300,560,0,0
24303,610,0,0
24305,601,0,0
24308,529,0,0
24310,472,0,0
24313,471,0,0
24315,503,0,0
24318,549,0,0
24320,583,0,0
24323,547,0,0
24325,475,0,0
24328,443,0,0
24330,461,0,0
24333,506,0,0
24335,558,0,0
24338,573,0,0
24340,514,0,0
24343,455,0,0
24345,445,0,0
24348,472,0,0
24350,525,0,0
24353,572,0,0
24355,556,0,0
24358,484,0,0
24360,438,0,0
24363,443,0,0
24365,487,0,0
24368,539,0,0
24370,576,0,0
24373,540,0,0
24375,469,0,0
24378,431,0,0
24380,445,0,0
24383,485,0,0
24385,536,0,0
24388,558,0,0
24390,512,0,0
24393,481,0,0
24395,510,0,0
24398,601,0,0
24400,722,0,0
24403,840,0,0
24405,891,0,0
24408,888,0,0
24410,893,0,0
24413,911,0,0
24415,914,0,0
24418,875,0,0
24420,795,0,0
24423,643,0,0
24425,491,0,0
24428,408,0,0
24430,410,0,0
24433,472,0,0
24435,554,0,0
24438,596,0,0
24440,555,0,0
24443,505,0,0
24445,490,0,0
24448,504,0,0
24450,539,0,0
24453,571,0,0
24455,542,0,0
24458,463,0,0
24460,428,0,0
24463,434,0,0
24465,478,0,0
24468,532,0,0
24470,564,0,0
24473,520,0,0
24475,457,0,0
24478,428,0,0
24480,443,0,0
24483,489,0,0
24485,538,0,0
24488,549,0,0
24490,484,0,0
24493,432,0,0
24495,430,0,0
24498,466,0,0
24500,517,0,0
24503,563,0,0
24505,539,0,0
24508,464,0,0
24511,424,0,0
24513,436,0,0
24516,482,0,0
24518,536,0,0
24521,570,0,0
24523,523,0,0
24526,460,0,0
24528,432,0,0
24531,457,0,0
24533,505,0,0
24536,555,0,0
24538,562,0,0
24541,501,0,0
24543,448,0,0
24546,446,0,0
24548,478,0,0
24551,534,0,0
24553,575,0,0
24556,546,0,0
24558,476,0,0
24561,437,0,0
24563,455,0,0
24566,502,0,0
24568,557,0,0
24571,591,0,0
24573,539,0,0
24576,471,0,0
24578,453,0,0
24581,481,0,0
24583,530,0,0
24586,581,0,0
24588,583,0,0
24591,519,0,0
24593,473,0,0
24596,468,0,0
24598,509,0,0
24601,564,0,0
24603,603,0,0
24606,580,0,0
24608,508,0,0
24611,475,0,0
24613,497,0,0
24616,541,0,0
24618,594,0,0
24621,624,0,0
24623,568,0,0
24626,505,0,0
24628,490,0,0
24631,519,0,0
24633,569,0,0
24636,619,0,0
24638,621,0,0
24641,548,0,0
24643,494,0,0
24646,489,0,0
24648,525,0,0
24651,578,0,0
24653,613,0,0
24656,577,0,0
24658,508,0,0
24661,465,0,0
24663,475,0,0
24666,522,0,0
24668,567,0,0
24671,587,0,0
24673,526,0,0
24676,456,0,0
24678,435,0,0
24681,465,0,0
24683,514,0,0
24686,557,0,0
24688,554,0,0
24691,484,0,0
24693,434,0,0
24696,437,0,0
24698,469,0,0
24701,525,0,0
24703,565,0,0
24706,525,0,0
24708,458,0,0
24711,423,0,0
24713,439,0,0
24716,492,0,0
24718,542,0,0
24721,563,0,0
24723,502,0,0
24726,441,0,0
24728,426,0,0
24731,450,0,0
24733,503,0,0
24736,555,0,0
24738,545,0,0
24741,477,0,0
24743,431,0,0
24746,435,0,0
24748,469,0,0
24751,520,0,0
24753,557,0,0
24756,521,0,0
24758,453,0,0
24761,422,0,0
24763,440,0,0
24766,487,0,0
24768,539,0,0
24771,558,0,0
24773,500,0,0
24776,442,0,0
24778,429,0,0
24781,460,0,0
24783,512,0,0
24786,560,0,0
24788,548,0,0
24791,479,0,0
24794,429,0,0
24796,431,0,0
24799,474,0,0
24801,526,0,0
24804,572,0,0
24806,528,0,0
24809,458,0,0
24811,425,0,0
24814,446,0,0
24816,497,0,0
24819,554,0,0
24821,571,0,0
24824,503,0,0
24826,448,0,0
24829,433,0,0
24831,465,0,0
24834,518,0,0
24836,567,0,0
24839,550,0,0
24841,474,0,0
24844,428,0,0
24846,432,0,0
24849,479,0,0
24851,541,0,0
24854,581,0,0
24856,539,0,0
24859,472,0,0
24861,447,0,0
24864,464,0,0
24866,509,0,0
24869,556,0,0
24871,567,0,0
24874,504,0,0
24876,446,0,0
24879,435,0,0
24881,471,0,0
24884,526,0,0
24886,575,0,0
24889,563,0,0
24891,497,0,0
24894,447,0,0
24896,449,0,0
24899,491,0,0
24901,544,0,0
24904,577,0,0
24906,535,0,0
24909,469,0,0
24911,444,0,0
24914,461,0,0
24916,508,0,0
24919,560,0,0
24921,572,0,0
24924,513,0,0
24926,456,0,0
24929,444,0,0
24931,481,0,0
24934,531,0,0
24936,573,0,0
24939,553,0,0
24941,483,0,0
24944,442,0,0
24946,451,0,0
24949,496,0,0
24951,552,0,0
24954,586,0,0
24956,544,0,0
24959,481,0,0
24961,461,0,0
24964,482,0,0
24966,531,0,0
24969,581,0,0
24971,587,0,0
24974,524,0,0
24976,467,0,0
24979,460,0,0
24981,497,0,0
24984,551,0,0
24986,597,0,0
24989,582,0,0
24991,519,0,0
24994,482,0,0
24996,487,0,0
24999,533,0,0
25001,575,0,0
25004,601,0,0
25006,543,0,0
25009,470,0,0
25011,441,0,0
25014,461,0,0
25016,515,0,0
25019,568,0,0
25021,571,0,0
25024,507,0,0
25026,447,0,0
25029,439,0,0
25031,472,0,0
25034,525,0,0
25036,566,0,0
25039,542,0,0
25041,475,0,0
25044,433,0,0
25046,448,0,0
25049,490,0,0
25051,540,0,0
25054,569,0,0
25056,519,0,0
25059,457,0,0
25061,435,0,0
25064,460,0,0
25066,508,0,0
25069,554,0,0
25071,548,0,0
25074,471,0,0
25076,416,0,0
25079,408,0,0
25081,455,0,0
25084,527,0,0
25087,601,0,0
25089,611,0,0
25092,592,0,0
25094,626,0,0
25097,700,0,0
25099,812,0,0
25102,931,0,0
25104,1001,0,0
25107,976,0,0
25109,878,0,0
25112,773,0,0
25114,678,0,0
25117,618,0,0
25119,577,0,0
25122,519,0,0
25124,432,0,0
25127,394,0,0
25129,427,0,0
25132,504,0,0
25134,584,0,0
25137,628,0,0
25139,588,0,0
25142,492,0,0
25144,437,0,0
25147,431,0,0
25149,468,0,0
25152,519,0,0
25154,543,0,0
25157,492,0,0
25159,433,0,0
25162,421,0,0
25164,453,0,0
25167,496,0,0
25169,546,0,0
25172,542,0,0
25174,474,0,0
25177,420,0,0
25179,420,0,0
25182,459,0,0
25184,515,0,0
25187,556,0,0
25189,522,0,0
25192,452,0,0
25194,417,0,0
25197,438,0,0
25199,484,0,0
25202,539,0,0
25204,559,0,0
25207,502,0,0
25209,442,0,0
25212,419,0,0
25214,447,0,0
25217,499,0,0
25219,552,0,0
25222,546,0,0
25224,478,0,0
25227,434,0,0
25229,436,0,0
25232,477,0,0
25234,531,0,0
25237,572,0,0
25239,535,0,0
25242,466,0,0
25244,436,0,0
25247,452,0,0
25249,502,0,0
25252,554,0,0
25254,575,0,0
25257,513,0,0
25259,452,0,0
25262,441,0,0
25264,478,0,0
25267,528,0,0
25269,575,0,0
25272,561,0,0
25274,490,0,0
25277,448,0,0
25279,454,0,0
25282,503,0,0
25284,557,0,0
25287,596,0,0
25289,563,0,0
25292,489,0,0
25294,462,0,0
25297,483,0,0
25299,536,0,0
25302,588,0,0
25304,602,0,0
25307,542,0,0
25309,482,0,0
25312,473,0,0
25314,511,0,0
25317,569,0,0
25320,616,0,0
25322,600,0,0
25325,531,0,0
25327,484,0,0
25330,490,0,0
25332,536,0,0
25335,590,0,0
25337,626,0,0
25340,576,0,0
25342,506,0,0
25345,468,0,0
25347,485,0,0
25350,534,0,0
25352,583,0,0
25355,590,0,0
25357,516,0,0
25360,449,0,0
25362,439,0,0
25365,468,0,0
25367,523,0,0
25370,572,0,0
25372,551,0,0
25375,477,0,0
25377,428,0,0
25380,429,0,0
25382,473,0,0
25385,526,0,0
25387,559,0,0
25390,511,0,0
25392,438,0,0
25395,413,0,0
25397,442,0,0
25400,491,0,0
25402,543,0,0
25405,554,0,0
25407,493,0,0
25410,441,0,0
25412,434,0,0
25415,464,0,0
25417,518,0,0
25420,565,0,0
25422,542,0,0
25425,474,0,0
25427,433,0,0
25430,440,0,0
25432,484,0,0
25435,540,0,0
25437,571,0,0
25440,527,0,0
25442,463,0,0
25445,438,0,0
25447,457,0,0
25450,504,0,0
25452,554,0,0
25455,559,0,0
25457,491,0,0
25460,438,0,0
25462,435,0,0
25465,471,0,0
25467,527,0,0
25470,574,0,0
25472,552,0,0
25475,476,0,0
25477,435,0,0
25480,446,0,0
25482,489,0,0
25485,548,0,0
25487,576,0,0
25490,528,0,0
25492,464,0,0
25495,440,0,0
25497,464,0,0
25500,518,0,0
25502,569,0,0
25505,568,0,0
25507,502,0,0
25510,450,0,0
25512,448,0,0
25515,489,0,0
25517,541,0,0
25520,580,0,0
25522,552,0,0
25525,484,0,0
25527,449,0,0
25530,463,0,0
25532,511,0,0
25535,557,0,0
25537,579,0,0
25540,529,0,0
25542,468,0,0
25545,447,0,0
25547,474,0,0
25550,533,0,0
25552,576,0,0
25555,573,0,0
25558,505,0,0
25560,455,0,0
25563,456,0,0
25565,493,0,0
25568,547,0,0
25570,589,0,0
25573,551,0,0
25575,486,0,0
25578,448,0,0
25580,462,0,0
25583,514,0,0
25585,562,0,0
25588,584,0,0
25590,529,0,0
25593,465,0,0
25595,446,0,0
25598,477,0,0
25600,531,0,0
25603,580,0,0
25605,572,0,0
25608,500,0,0
25610,452,0,0
25613,449,0,0
25615,487,0,0
25618,542,0,0
25620,584,0,0
25623,549,0,0
25625,487,0,0
25628,453,0,0
25630,468,0,0
25633,512,0,0
25635,564,0,0
25638,578,0,0
25640,523,0,0
25643,468,0,0
25645,451,0,0
25648,484,0,0
25650,536,0,0
25653,578,0,0
25655,566,0,0
25658,499,0,0
25660,450,0,0
25663,451,0,0
25665,494,0,0
25672,576,0,0
25674,508,0,0
25677,458,0,0
25679,455,0,0
25682,496,0,0
25684,545,0,0
25687,585,0,0
25689,554,0,0
25692,486,0,0
25694,452,0,0
25697,468,0,0
25699,516,0,0
25702,564,0,0
25704,583,0,0
25707,529,0,0
25709,466,0,0
25712,453,0,0
25714,479,0,0
25717,530,0,0
25719,579,0,0
25722,576,0,0
25724,509,0,0
25727,465,0,0
25729,458,0,0
25732,501,0,0
25734,549,0,0
25737,587,0,0
25739,556,0,0
25742,488,0,0
25744,456,0,0
25747,474,0,0
25749,518,0,0
25752,569,0,0
25754,584,0,0
25757,527,0,0
25759,465,0,0
25762,449,0,0
25764,483,0,0
25767,533,0,0
25769,583,0,0
25772,574,0,0
25774,507,0,0
25777,462,0,0
25779,465,0,0
25782,504,0,0
25784,552,0,0
25787,590,0,0
25789,553,0,0
25792,484,0,0
25794,452,0,0
25797,474,0,0
25799,520,0,0
25802,571,0,0
25804,587,0,0
25807,533,0,0
25809,476,0,0
25812,460,0,0
25814,484,0,0
25817,533,0,0
25819,579,0,0
25822,568,0,0
25824,503,0,0
25827,459,0,0
25829,464,0,0
25832,507,0,0
25834,558,0,0
25837,595,0,0
25839,553,0,0
25842,484,0,0
25844,457,0,0
25847,474,0,0
25849,526,0,0
25852,577,0,0
25854,590,0,0
25857,534,0,0
25859,473,0,0
25862,461,0,0
25864,493,0,0
25867,544,0,0
25869,586,0,0
25872,572,0,0
25875,506,0,0
25877,461,0,0
25880,465,0,0
25882,508,0,0
25885,559,0,0
25887,593,0,0
25890,555,0,0
25892,488,0,0
25895,461,0,0
25897,482,0,0
25900,528,0,0
25902,576,0,0
25905,585,0,0
25907,529,0,0
25910,471,0,0
25912,461,0,0
25915,494,0,0
25917,545,0,0
25920,588,0,0
25922,572,0,0
25925,510,0,0
25927,466,0,0
25930,472,0,0
25932,514,0,0
25935,561,0,0
25937,590,0,0
25940,549,0,0
25942,483,0,0
25945,463,0,0
25947,483,0,0
25950,534,0,0
25952,581,0,0
25955,590,0,0
25957,526,0,0
25960,475,0,0
25962,462,0,0
25965,493,0,0
25967,545,0,0
25970,585,0,0
25972,564,0,0
25975,502,0,0
25977,464,0,0
25980,469,0,0
25982,513,0,0
25985,567,0,0
25987,599,0,0
25990,553,0,0
25992,487,0,0
25995,461,0,0
25997,482,0,0
26000,528,0,0
26002,576,0,0
26005,581,0,0
26007,521,0,0
26010,470,0,0
26012,469,0,0
26015,503,0,0
26017,555,0,0
26020,598,0,0
26022,577,0,0
26025,514,0,0
26027,475,0,0
26030,484,0,0
26032,527,0,0
26035,577,0,0
26037,606,0,0
26040,558,0,0
26042,502,0,0
26045,478,0,0
26047,497,0,0
26050,542,0,0
26052,582,0,0
26055,577,0,0
26057,511,0,0
26060,462,0,0
26062,464,0,0
26065,503,0,0
26067,558,0,0
26070,599,0,0
26072,576,0,0
26075,511,0,0
26077,474,0,0
26080,483,0,0
26082,525,0,0
26085,572,0,0
26087,596,0,0
26090,541,0,0
26092,476,0,0
26095,453,0,0
26097,473,0,0
26100,528,0,0
26102,580,0,0
26105,581,0,0
26107,511,0,0
26110,461,0,0
26112,457,0,0
26115,495,0,0
26117,547,0,0
26120,593,0,0
26122,557,0,0
26125,490,0,0
26127,456,0,0
26130,470,0,0
26132,512,0,0
26135,560,0,0
26137,573,0,0
26140,512,0,0
26142,452,0,0
26145,439,0,0
26148,486,0,0
26150,564,0,0
26153,657,0,0
26155,706,0,0
26158,719,0,0
26160,734,0,0
26163,793,0,0
26165,891,0,0
26168,1001,0,0
26170,1008,0,0
26173,988,0,0
26175,890,0,0
26178,751,0,0
26180,636,0,0
26183,563,0,0
26185,533,0,0
26188,521,0,0
26190,485,0,0
26193,462,0,0
26195,489,0,0
26198,551,0,0
26200,604,0,0
26203,628,0,0
26205,555,0,0
26208,461,0,0
26210,412,0,0
26213,423,0,0
26215,470,0,0
26218,526,0,0
26220,544,0,0
26223,473,0,0
26225,409,0,0
26228,401,0,0
26230,438,0,0
26233,494,0,0
26235,546,0,0
26238,524,0,0
26240,446,0,0
26243,398,0,0
26245,402,0,0
26248,443,0,0
26250,503,0,0
26253,545,0,0
26255,494,0,0
26258,427,0,0
26260,399,0,0
26263,422,0,0
26265,474,0,0
26268,529,0,0
26270,541,0,0
26273,468,0,0
26275,409,0,0
26278,408,0,0
26280,437,0,0
26283,497,0,0
26285,549,0,0
26288,525,0,0
26290,451,0,0
26293,411,0,0
26295,427,0,0
26298,466,0,0
26300,524,0,0
26303,556,0,0
26305,505,0,0
26308,442,0,0
26310,419,0,0
26313,443,0,0
26315,491,0,0
26318,549,0,0
26320,558,0,0
26323,490,0,0
26325,440,0,0
26328,432,0,0
26330,466,0,0
26333,518,0,0
26335,565,0,0
26338,537,0,0
26340,463,0,0
26343,427,0,0
26345,441,0,0
26348,492,0,0
26350,553,0,0
26353,583,0,0
26355,531,0,0
26358,460,0,0
26360,439,0,0
26363,464,0,0
26365,519,0,0
26368,578,0,0
26370,588,0,0
26373,520,0,0
26375,470,0,0
26378,465,0,0
26380,505,0,0
26383,553,0,0
26385,600,0,0
26388,575,0,0
26390,502,0,0
26393,471,0,0
26395,490,0,0
26398,540,0,0
26400,594,0,0
26403,629,0,0
26406,566,0,0
26408,501,0,0
26411,483,0,0
26413,507,0,0
26416,556,0,0
26418,608,0,0
26421,604,0,0
26423,529,0,0
26426,469,0,0
26428,469,0,0
26431,498,0,0
26433,548,0,0
26436,591,0,0
26438,556,0,0
26441,476,0,0
26443,443,0,0
26446,452,0,0
26448,497,0,0
26451,548,0,0
26453,574,0,0
26456,510,0,0
26458,447,0,0
26461,426,0,0
26463,452,0,0
26466,498,0,0
26468,556,0,0
26471,551,0,0
26473,478,0,0
26476,422,0,0
26478,427,0,0
26481,463,0,0
26483,518,0,0
26486,565,0,0
26488,523,0,0
26491,454,0,0
26493,418,0,0
26496,432,0,0
26498,481,0,0
26501,538,0,0
26503,562,0,0
26506,503,0,0
26508,440,0,0
26511,426,0,0
26513,455,0,0
26516,508,0,0
26518,556,0,0
26521,551,0,0
26523,474,0,0
26526,424,0,0
26528,431,0,0
26531,470,0,0
26533,527,0,0
26536,572,0,0
26538,530,0,0
26541,455,0,0
26543,423,0,0
26546,441,0,0
26548,489,0,0
26551,545,0,0
26553,567,0,0
26556,506,0,0
26558,444,0,0
26561,433,0,0
26563,465,0,0
26566,518,0,0
26568,567,0,0
26571,552,0,0
26573,479,0,0
26576,436,0,0
26578,445,0,0
26581,484,0,0
26583,543,0,0
26586,585,0,0
26588,541,0,0
26591,468,0,0
26593,445,0,0
26596,460,0,0
26598,505,0,0
26601,560,0,0
26603,576,0,0
26606,512,0,0
26608,454,0,0
26611,447,0,0
26613,481,0,0
26616,530,0,0
26618,581,0,0
26621,564,0,0
26623,487,0,0
26626,446,0,0
26628,447,0,0
26631,488,0,0
26633,546,0,0
26636,587,0,0
26638,545,0,0
26641,470,0,0
26643,444,0,0
26646,461,0,0
26648,507,0,0
26651,559,0,0
26653,576,0,0
26656,515,0,0
26658,453,0,0
26661,446,0,0
26663,483,0,0
26666,532,0,0
26668,581,0,0
26671,562,0,0
26673,486,0,0
26676,443,0,0
26678,452,0,0
26681,497,0,0
26684,549,0,0
26686,588,0,0
26689,542,0,0
26691,475,0,0
26694,445,0,0
26696,470,0,0
26699,513,0,0
26701,565,0,0
26704,578,0,0
26706,510,0,0
26709,452,0,0
26711,447,0,0
26714,481,0,0
26716,537,0,0
26719,584,0,0
26721,564,0,0
26724,491,0,0
26726,447,0,0
26729,457,0,0
26731,496,0,0
26734,551,0,0
26736,590,0,0
26739,539,0,0
26741,469,0,0
26744,442,0,0
26746,465,0,0
26749,518,0,0
26751,575,0,0
26754,579,0,0
26756,514,0,0
26759,454,0,0
26761,450,0,0
26764,484,0,0
26766,539,0,0
26769,589,0,0
26771,562,0,0
26774,487,0,0
26776,446,0,0
26779,455,0,0
26781,499,0,0
26784,555,0,0
26786,592,0,0
26789,539,0,0
26791,475,0,0
26794,455,0,0
26796,476,0,0
26799,526,0,0
26801,577,0,0
26804,583,0,0
26806,514,0,0
26809,460,0,0
26811,454,0,0
26814,494,0,0
26816,544,0,0
26819,593,0,0
26821,560,0,0
26824,486,0,0
26826,449,0,0
26829,459,0,0
26831,507,0,0
26834,563,0,0
26836,594,0,0
26839,534,0,0
26841,466,0,0
26844,450,0,0
26846,477,0,0
26849,528,0,0
26851,579,0,0
26854,583,0,0
26856,509,0,0
26859,465,0,0
26861,458,0,0
26864,493,0,0
26866,545,0,0
26869,590,0,0
26871,560,0,0
26874,489,0,0
26876,455,0,0
26879,467,0,0
26881,513,0,0
26884,568,0,0
26886,595,0,0
26889,537,0,0
26891,470,0,0
26894,456,0,0
26896,482,0,0
26899,534,0,0
26901,583,0,0
26904,578,0,0
26906,505,0,0
26909,453,0,0
26911,456,0,0
26914,499,0,0
26916,556,0,0
26919,600,0,0
26921,561,0,0
26924,490,0,0
26926,454,0,0
26929,471,0,0
26932,520,0,0
26934,578,0,0
26937,597,0,0
26939,533,0,0
26942,466,0,0
26944,452,0,0
26947,478,0,0
26949,531,0,0
26952,584,0,0
26954,579,0,0
26957,513,0,0
26959,467,0,0
26962,467,0,0
26964,503,0,0
26967,553,0,0
26969,594,0,0
26972,556,0,0
26974,481,0,0
26977,455,0,0
26979,475,0,0
26982,528,0,0
26984,582,0,0
26987,600,0,0
26989,537,0,0
26992,474,0,0
26994,459,0,0
26997,489,0,0
26999,541,0,0
27002,590,0,0
27004,578,0,0
27007,509,0,0
27009,457,0,0
27012,468,0,0
27014,503,0,0
27017,557,0,0
27019,598,0,0
27022,552,0,0
27024,477,0,0
27027,445,0,0
27029,465,0,0
27032,513,0,0
27034,567,0,0
27037,587,0,0
27039,523,0,0
27042,459,0,0
27044,450,0,0
27047,484,0,0
27049,534,0,0
27052,581,0,0
27054,566,0,0
27057,493,0,0
27059,448,0,0
27062,453,0,0
27064,492,0,0
27067,546,0,0
27069,587,0,0
27072,545,0,0
27074,474,0,0
27077,450,0,0
27079,480,0,0
27082,531,0,0
27084,584,0,0
27087,598,0,0
27089,532,0,0
27092,475,0,0
27094,468,0,0
27097,501,0,0
27099,560,0,0
27102,613,0,0
27104,593,0,0
27107,520,0,0
27109,477,0,0
27112,480,0,0
27114,517,0,0
27117,568,0,0
27119,595,0,0
27122,545,0,0
27124,477,0,0
27127,453,0,0
27129,478,0,0
27132,534,0,0
27134,594,0,0
27137,605,0,0
27139,537,0,0
27142,478,0,0
27144,472,0,0
27147,507,0,0
27149,556,0,0
27152,599,0,0
27154,575,0,0
27157,504,0,0
27159,462,0,0
27162,471,0,0
27164,521,0,0
27167,572,0,0
27169,604,0,0
27172,550,0,0
27174,482,0,0
27177,459,0,0
27179,479,0,0
27182,528,0,0
27184,581,0,0
27187,586,0,0
27189,523,0,0
27192,466,0,0
27195,468,0,0
27197,501,0,0
27200,557,0,0
27202,595,0,0
27205,564,0,0
27207,485,0,0
27210,444,0,0
27212,454,0,0
27215,508,0,0
27217,591,0,0
27220,658,0,0
27222,658,0,0
27225,663,0,0
27227,713,0,0
27230,803,0,0
27232,914,0,0
27235,1011,0,0
27237,1011,0,0
27240,969,0,0
27242,869,0,0
27245,757,0,0
27247,653,0,0
27250,585,0,0
27252,551,0,0
27255,491,0,0
27257,431,0,0
27260,433,0,0
27262,493,0,0
27265,570,0,0
27267,641,0,0
27270,659,0,0
27272,582,0,0
27275,490,0,0
27277,450,0,0
27280,463,0,0
27282,510,0,0
27285,564,0,0
27287,570,0,0
27290,499,0,0
27292,449,0,0
27295,446,0,0
27297,484,0,0
27300,543,0,0
27302,586,0,0
27305,553,0,0
27307,480,0,0
27310,440,0,0
27312,455,0,0
27315,505,0,0
27317,558,0,0
27320,586,0,0
27322,522,0,0
27325,456,0,0
27327,440,0,0
27330,470,0,0
27332,524,0,0
27335,575,0,0
27337,573,0,0
27340,503,0,0
27342,452,0,0
27345,452,0,0
27347,488,0,0
27350,543,0,0
27352,588,0,0
27355,556,0,0
27357,486,0,0
27360,446,0,0
27362,462,0,0
27365,514,0,0
27367,565,0,0
27370,588,0,0
27372,529,0,0
27375,467,0,0
27377,450,0,0
27380,487,0,0
27382,540,0,0
27385,588,0,0
27387,580,0,0
27390,506,0,0
27392,456,0,0
27395,460,0,0
27397,499,0,0
27400,553,0,0
27402,599,0,0
27405,561,0,0
27407,488,0,0
27410,460,0,0
27412,478,0,0
27415,531,0,0
27417,585,0,0
27420,605,0,0
27422,550,0,0
27425,486,0,0
27427,473,0,0
27430,509,0,0
27432,559,0,0
27435,612,0,0
27437,606,0,0
27440,534,0,0
27442,487,0,0
27445,494,0,0
27448,540,0,0
27450,596,0,0
27453,640,0,0
27455,597,0,0
27458,527,0,0
27460,500,0,0
27463,517,0,0
27465,565,0,0
27468,623,0,0
27470,644,0,0
27473,580,0,0
27475,519,0,0
27478,504,0,0
27480,541,0,0
27483,587,0,0
27485,638,0,0
27488,615,0,0
27490,536,0,0
27493,482,0,0
27495,486,0,0
27498,519,0,0
27500,574,0,0
27503,605,0,0
27505,555,0,0
27508,479,0,0
27510,446,0,0
27513,466,0,0
27515,510,0,0
27518,560,0,0
27520,573,0,0
27523,502,0,0
27525,442,0,0
27528,432,0,0
27530,463,0,0
27533,516,0,0
27535,568,0,0
27538,544,0,0
27540,474,0,0
27543,430,0,0
27545,439,0,0
27548,476,0,0
27550,533,0,0
27553,567,0,0
27555,518,0,0
27558,448,0,0
27560,423,0,0
27563,446,0,0
27565,496,0,0
27568,549,0,0
27570,558,0,0
27573,487,0,0
27575,429,0,0
27578,423,0,0
27580,464,0,0
27583,517,0,0
27585,569,0,0
27588,546,0,0
27590,470,0,0
27593,427,0,0
27595,438,0,0
27598,483,0,0
27600,538,0,0
27603,572,0,0
27605,520,0,0
27608,454,0,0
27610,431,0,0
27613,449,0,0
27615,496,0,0
27618,550,0,0
27620,559,0,0
27623,493,0,0
27625,438,0,0
27628,440,0,0
27630,476,0,0
27633,529,0,0
27635,574,0,0
27638,549,0,0
27640,475,0,0
27643,434,0,0
27645,444,0,0
27648,491,0,0
27650,550,0,0
27653,587,0,0
27655,533,0,0
27658,464,0,0
27660,448,0,0
27663,467,0,0
27665,517,0,0
27668,568,0,0
27670,571,0,0
27673,498,0,0
27675,445,0,0
27678,444,0,0
27680,486,0,0
27683,536,0,0
27685,586,0,0
27688,555,0,0
27690,481,0,0
27693,447,0,0
27695,458,0,0
27698,503,0,0
27700,558,0,0
27703,587,0,0
27705,532,0,0
27708,469,0,0
27710,450,0,0
27713,476,0,0
27715,523,0,0
27718,575,0,0
27721,572,0,0
27723,502,0,0
27726,448,0,0
27728,452,0,0
27731,486,0,0
27733,543,0,0
27736,586,0,0
27738,549,0,0
27741,472,0,0
27743,433,0,0
27746,449,0,0
27748,497,0,0
27751,552,0,0
27753,575,0,0
27756,513,0,0
27758,445,0,0
27761,434,0,0
27763,462,0,0
27766,515,0,0
27768,570,0,0
27771,567,0,0
27773,489,0,0
27776,435,0,0
27778,435,0,0
27781,474,0,0
27783,531,0,0
27786,576,0,0
27788,541,0,0
27791,465,0,0
27793,433,0,0
27796,451,0,0
27798,503,0,0
27801,563,0,0
27803,588,0,0
27806,527,0,0
27808,463,0,0
27811,445,0,0
27813,473,0,0
27816,526,0,0
27818,580,0,0
27821,576,0,0
27823,506,0,0
27826,453,0,0
27828,457,0,0
27831,496,0,0
27833,549,0,0
27836,589,0,0
27838,555,0,0
27841,480,0,0
27843,450,0,0
27846,471,0,0
27848,515,0,0
27851,573,0,0
27853,588,0,0
27856,526,0,0
27858,465,0,0
27861,448,0,0
27863,477,0,0
27866,530,0,0
27868,582,0,0
27871,571,0,0
27873,500,0,0
27876,457,0,0
27878,457,0,0
27881,494,0,0
27883,551,0,0
27886,591,0,0
27888,550,0,0
27891,476,0,0
27893,450,0,0
27896,465,0,0
27898,513,0,0
27901,571,0,0
27903,590,0,0
27906,525,0,0
27908,466,0,0
27911,455,0,0
27913,483,0,0
27916,538,0,0
27918,589,0,0
27921,572,0,0
27923,500,0,0
27926,453,0,0
27928,457,0,0
27931,497,0,0
27933,550,0,0
27936,592,0,0
27938,544,0,0
27941,478,0,0
27943,448,0,0
27946,470,0,0
27948,522,0,0
27951,575,0,0
27953,590,0,0
27956,524,0,0
27958,461,0,0
27961,449,0,0
27963,481,0,0
27966,537,0,0
27968,587,0,0
27971,571,0,0
27973,494,0,0
27976,448,0,0
27979,456,0,0
27981,497,0,0
27984,557,0,0
27986,591,0,0
27989,545,0,0
27991,478,0,0
27994,448,0,0
27996,475,0,0
27999,523,0,0
28001,574,0,0
28004,584,0,0
28006,516,0,0
28009,460,0,0
28011,454,0,0
28014,489,0,0
28016,545,0,0
28019,592,0,0
28021,571,0,0
28024,492,0,0
28026,453,0,0
28029,460,0,0
28031,506,0,0
28034,564,0,0
28036,597,0,0
28039,543,0,0
28041,472,0,0
28044,448,0,0
28046,472,0,0
28049,524,0,0
28051,579,0,0
28054,585,0,0
28056,517,0,0
28059,459,0,0
28061,457,0,0
28064,490,0,0
28066,547,0,0
28069,596,0,0
28071,569,0,0
28074,496,0,0
28076,460,0,0
28079,470,0,0
28081,511,0,0
28084,567,0,0
28086,601,0,0
28089,544,0,0
28091,474,0,0
28094,451,0,0
28096,476,0,0
28099,530,0,0
28101,586,0,0
28104,592,0,0
28106,517,0,0
28109,462,0,0
28111,461,0,0
28114,492,0,0
28116,546,0,0
28119,589,0,0
28121,553,0,0
28124,469,0,0
28126,425,0,0
28129,438,0,0
28131,494,0,0
28134,549,0,0
28136,582,0,0
28139,532,0,0
28141,469,0,0
28144,456,0,0
28146,485,0,0
28149,539,0,0
28151,596,0,0
28154,592,0,0
28156,520,0,0
28159,459,0,0
28161,458,0,0
28164,494,0,0
28166,551,0,0
28169,597,0,0
28171,562,0,0
28174,486,0,0
28176,447,0,0
28179,460,0,0
28181,513,0,0
28184,567,0,0
28186,598,0,0
28189,536,0,0
28191,465,0,0
28194,449,0,0
28196,477,0,0
28199,533,0,0
28201,582,0,0
28204,577,0,0
28206,503,0,0
28209,448,0,0
28211,443,0,0
28214,482,0,0
28216,533,0,0
28219,585,0,0
28221,563,0,0
28224,520,0,0
28226,530,0,0
28229,609,0,0
28231,731,0,0
28234,857,0,0
28236,950,0,0
28239,952,0,0
28242,926,0,0
28244,898,0,0
28247,869,0,0
28249,820,0,0
28252,749,0,0
28254,629,0,0
28257,474,0,0
28259,388,0,0
28262,391,0,0
28264,466,0,0
28267,564,0,0
28269,641,0,0
28272,620,0,0
28274,545,0,0
28277,491,0,0
28279,487,0,0
28282,519,0,0
28284,555,0,0
28287,568,0,0
28289,503,0,0
28292,446,0,0
28294,432,0,0
28297,470,0,0
28299,524,0,0
28302,578,0,0
28304,564,0,0
28307,493,0,0
28309,439,0,0
28312,442,0,0
28314,477,0,0
28317,536,0,0
28319,576,0,0
28322,536,0,0
28324,463,0,0
28327,435,0,0
28329,455,0,0
28332,506,0,0
28334,560,0,0
28337,578,0,0
28339,514,0,0
28342,454,0,0
28344,443,0,0
28347,471,0,0
28349,525,0,0
28352,576,0,0
28354,562,0,0
28357,493,0,0
28359,441,0,0
28362,449,0,0
28364,489,0,0
28367,546,0,0
28369,586,0,0
28372,539,0,0
28374,469,0,0
28377,438,0,0
28379,462,0,0
28382,511,0,0
28384,568,0,0
28387,586,0,0
28389,525,0,0
28392,462,0,0
28394,451,0,0
28397,485,0,0
28399,544,0,0
28402,593,0,0
28404,576,0,0
28407,501,0,0
28409,458,0,0
28412,467,0,0
28414,516,0,0
28417,570,0,0
28419,612,0,0
28422,562,0,0
28424,492,0,0
28427,462,0,0
28429,485,0,0
28432,540,0,0
28434,602,0,0
28437,615,0,0
28439,548,0,0
28442,491,0,0
28444,485,0,0
28447,524,0,0
28449,578,0,0
