15930946,54976
15942116,54946
15948331,54952
15954532,54947
15960725,54944
15966919,54945
15973096,54946
15979290,54943
15985467,54944
15990997,54943
15997230,54937
16003447,54947
16009654,54936
16015853,54936
16022042,54932
16028211,54931
16034391,54935
16039611,54928
16045815,54935
16052031,54934
16058237,54921
16064401,54925
16070605,54930
16076041,54944
16082905,54930
16089025,54932
16101782,54928
16108015,54936
16114244,54935
16119674,54931
16125889,54943
16132050,54938
16138242,54942
16144462,54947
16150647,54944
16156871,54944
16163052,54943
16168222,54944
16174374,54947
16180479,54948
16186636,54951
16192800,54951
16198973,54943
16209618,54963
16215815,54972
16221999,54974
16228188,54978
16234382,54977
16240548,54989
16246677,54988
16252870,54986
16258296,54983
16264478,55000
16270668,54991
16276882,54993
16283069,54991
16289211,54999
16295376,54993
16301139,54987
16307323,54990
16313485,54983
16319691,54985
16325927,54972
16332097,54988
16343118,54931
16349308,54932
16355486,54935
16361663,54932
16367886,54927
16373994,54932
16380178,54938
16386343,54930
16391599,54927
16397788,54929
16403976,54929
16410215,54933
16416443,54932
16422603,54926
16428764,54934
16434920,54928
16440313,54920
16446494,54929
16452638,54927
16458864,54917
16465036,54924
16471191,54927
16481947,54905
16488080,54905
16494311,54902
16500450,54891
16506574,54901
16513337,54897
16519516,54903
16525705,54899
16531870,54904
16538062,54899
16544308,54895
16550460,54901
16556631,54902
16562837,54897
16569025,54904
16574485,54898
16580665,54904
16586888,54907
16593032,54901
16599247,54902
16605429,54904
16616228,54899
16622410,54906
16628561,54903
16634724,54899
16640914,54907
16647089,54904
16653307,54914
16659459,54902
16665640,54906
16671811,54908
16678005,54902
16684178,54900
16690367,54909
16696573,54910
16702774,54911
16708217,54909
16714398,54902
16721209,54904
16727408,54900
16733598,54906
16739800,54909
16750571,54915
16756754,54914
16762937,54918
16769107,54912
16775311,54915
16781518,54911
16787737,54911
16793944,54909
16800204,54917
16806396,54922
16812562,54912
16818745,54910
16824913,54909
16831113,54920
16837321,54917
16842796,54914
16849011,54913
16855219,54913
16861407,54919
16867603,54910
16873794,54920
16884570,54923
16890802,54924
16896985,54926
16903187,54923
16909381,54917
16915589,54931
16921811,54929
16928610,54923
16934820,54932
16940236,54931
16946404,54937
16952613,54939
16958793,54938
16964950,54942
16971122,54941
16976330,54944
16982495,54946
16988691,54944
16994911,54946
17001061,54948
17007306,54941
17018074,54914
17024291,54911
17030475,54907
17036665,54906
17042923,54907
17049127,54909
17055382,54911
17061614,54918
17067840,54914
17074057,54908
17080273,54917
17086486,54919
17092681,54921
17098928,54920
17105129,54921
17111354,54921
17117578,54923
17123824,54922
17130088,54916
17136273,54916
17143149,54914
17153888,54872
17160159,54871
17166381,54876
17172575,54877
17178813,54873
17185061,54870
17191313,54874
17197564,54870
17203806,54872
17210053,54854
17215548,54859
17221776,54845
17227966,54849
17234229,54828
17240474,54822
17245670,54823
17251917,54817
17258148,54810
17264379,54820
17270590,54813
17276828,54816
17287541,54834
17293774,54843
17300011,54843
17306176,54846
17312357,54848
17318499,54852
17324731,54853
17330957,54858
17337201,54855
17350283,54870
17356485,54867
17363437,54872
17369644,54880
17374875,54877
17381054,54895
17387262,54891
17393469,54900
17399706,54886
17405928,54901
17416678,54942
17422887,54943
17429100,54943
17435319,54945
17441519,54955
17447712,54952
17453945,54953
17460181,54955
17466405,54957
17472584,54959
17478752,54961
17484173,54970
17490345,54963
17496525,54971
17502741,54970
17508995,54977
17514168,54974
17520379,54973
17526575,54983
17532786,54981
17538987,54988
17544468,54986
17550678,55069
17556931,55082
17563163,55077
17569370,55077
17576197,55074
17582401,55077
17588640,55088
17594882,55094
17601141,55096
17607412,55091
17613672,55097
17618926,55108
17625141,55106
17631367,55108
17637579,55110
17643803,55110
17650005,55118
17656268,55116
17662475,55125
17668661,55132
17674898,55127
17680318,55132
17691828,55165
17698034,55168
17704242,55169
17710426,55173
17716603,55170
17722808,55172
17728989,55177
17735265,55180
17741487,55177
17747727,55176
17753180,55171
17759357,55170
17765559,55186
17771744,55183
17777943,55183
17784084,55184
17790287,55184
17796499,55185
17802712,55183
17808914,55178
17814152,55185
17825845,55229
17832012,55230
17838180,55234
17844343,55231
17850549,55239
17856720,55232
17862994,55233
17869249,55242
17875508,55240
17881713,55238
17886916,55242
17893127,55242
17899339,55239
17905547,55240
17911783,55246
17917987,55249
17924178,55251
17930386,55256
17936569,55257
17942869,55249
17948369,55258
17959848,55286
17966072,55292
17972338,55292
17978560,55295
17984773,55279
17990984,55279
17997820,55285
18003997,55287
18010228,55285
18016416,55286
18021868,55282
18028128,55286
18034350,55284
18040590,55287
18046827,55286
18053023,55288
18058568,55284
18064821,55288
18071015,55286
18077202,55276
18082451,55284
18088647,55285
18094873,55325
18101043,55320
18107290,55326
18113491,55327
18119697,55332
18125936,55325
18132175,55324
18138397,55325
18144610,55325
18150874,55323
18156318,55328
18162551,55327
18168810,55322
18175003,55327
18181185,55329
18187426,55325
18192670,55332
18198911,55327
18205718,55331
18212055,55329
18217518,55318
18223752,55318
18235233,55305
18241443,55296
18247676,55299
18253905,55307
18260122,55301
18266362,55306
18272581,55297
18278783,55304
18285002,55300
18290519,55310
18296756,55310
18302940,55312
18309130,55312
18315332,55314
18321554,55322
18326785,55323
18332958,55316
18339156,55312
18345348,55314
18350926,55317
18357175,55319
18368841,55299
18375040,55300
18381252,55310
18387383,55300
18393576,55303
18399832,55299
18406063,55302
18412309,55294
18419110,55293
18424671,55292
18430920,55291
18437137,55287
18443369,55282
18449634,55288
18455860,55289
18461065,55284
18467272,55285
18473512,55283
18479746,55283
18485271,55283
18491508,55283
18502956,55253
18509151,55254
18515342,55251
18521511,55250
18527729,55245
18533956,55254
18540171,55253
18546410,55262
18552653,55261
18558916,55251
18565165,55262
18571389,55263
18577606,55259
18583881,55263
18590123,55266
18602949,55265
18609231,55263
18614871,55276
18621136,55270
18632925,55280
18639742,55276
18646002,55275
18652224,55272
18658498,55282
18664677,55280
18670920,55287
18677128,55281
18683383,55274
18689631,55280
18694880,55276
18701101,55272
18707324,55269
18713533,55262
18719716,55279
18725936,55266
18731458,55258
18737689,55259
18743951,55254
18749138,55251
18755390,55243
18767133,55286
18773391,55289
18779632,55289
18785863,55300
18792117,55288
18798344,55292
18804479,55295
18810684,55295
18816938,55293
18823182,55288
18828681,55294
18834896,55290
18841129,55282
18847976,55290
18854211,55290
18860474,55297
18865700,55293
18871896,55295
18878117,55289
18883579,55292
18889840,55293
18901275,55284
18907522,55275
18913756,55274
18919991,55284
18926198,55274
18932411,55270
18938649,55286
18944833,55271
18951033,55286
18957284,55283
18962786,55277
18969022,55279
18975259,55283
18981462,55277
18987647,55285
18993885,55280
18999081,55277
19005312,55285
19011529,55280
19017749,55268
19024029,55279
19030258,55279
19036507,55275
19042747,55266
19048975,55264
19055191,55268
19062059,55269
19068256,55264
19074493,55261
19080721,55274
19086941,55267
19093134,55260
19098632,55266
19104846,55261
19111063,55260
19117269,55258
19123474,55262
19129675,55271
19134895,55262
19141152,55259
19147411,55265
19153608,55264
19159081,55262
19170459,55257
19176694,55253
19182928,55254
19189145,55254
19195395,55257
19201578,55255
19207845,55259
19214085,55267
19220297,55267
19226544,55256
19232055,55264
19238313,55256
19244545,55266
19250795,55258
19256998,55262
19263191,55262
19268377,55256
19275206,55261
19281419,55258
19287614,55263
19293113,55259
19299341,55269
19305571,55275
19311813,55273
19318024,55269
19324212,55271
19330423,55276
19336649,55270
19342901,55270
19349163,55278
19355390,55278
19361622,55286
19366888,55281
19373128,55277
19379313,55279
19385526,55293
19391785,55289
19398043,55287
19403511,55276
19409727,55288
19415949,55289
19422152,55291
19427363,55294
19433571,55284
19439852,55315
19446094,55309
19452298,55317
19458516,55318
19464742,55310
19470975,55318
19477206,55317
19484048,55318
19490343,55310
19496566,55320
19501967,55313
19508224,55318
19514465,55322
19520658,55319
19526894,55328
19533116,55328
19538353,55326
19544578,55329
19550751,55327
19556962,55328
19562423,55326
19568585,55330
19580011,55360
19586225,55368
19592433,55364
19598621,55357
19604793,55363
19610965,55359
19617137,55364
19623364,55358
19629574,55363
19635016,55358
19641190,55359
19647434,55358
19653613,55349
19659812,55362
19666016,55359
19672215,55360
19678361,55350
19684579,55358
19690781,55351
19696973,55348
19703192,55354
19714609,55327
19720832,55334
19727060,55321
19733283,55326
19739440,55321
19745634,55326
19751845,55325
19758030,55324
19764231,55328
19769681,55328
19775901,55330
19782129,55324
19788344,55325
19794546,55318
19800784,55322
19806994,55323
19812535,55322
19818733,55322
19824969,55320
19830183,55317
19836368,55315
19842605,55314
19855431,55310
19861692,55302
19868018,55311
19874266,55305
19880492,55309
19886727,55312
19892970,55311
19899234,55314
19905428,55318
19912279,55312
19918536,55313
19924788,55314
19931000,55309
19937210,55302
19942656,55309
19948897,55304
19955140,55314
19960397,55312
19966631,55312
19978290,55334
19984516,55333
19990732,55329
19996980,55325
20003207,55338
20009352,55340
20015604,55341
20021802,55342
20028019,55346
20034227,55344
20039448,55351
20045624,55357
20051856,55342
20058073,55359
20064276,55354
20070505,55345
20075938,55348
20082143,55353
20088381,55349
20093621,55348
20099863,55354
20106119,55361
20112343,55393
20118563,55395
20125359,55394
20131618,55382
20137830,55390
20144035,55391
20150242,55389
20156460,55393
20162637,55396
20168848,55398
20174334,55388
20180585,55394
20186855,55396
20193035,55399
20199214,55400
20205416,55397
20210635,55395
20216834,55398
20223049,55398
20228518,55399
20234772,55401
20241036,55398
20252537,55418
20258768,55409
20265024,55409
20271199,55415
20277437,55415
20283635,55401
20289868,55402
20296106,55406
20302364,55402
20307846,55407
20314049,55401
20320292,55408
20326544,55405
20332772,55401
20339591,55396
20344786,55395
20351002,55394
20357220,55390
20362700,55395
20368921,55396
20375155,55392
20386671,55359
20392914,55361
20399140,55357
20405430,55357
20411695,55353
20417934,55355
20424177,55351
20430421,55353
20436625,55354
20442126,55349
20448358,55352
20454608,55356
20460847,55358
20467026,55352
20473204,55354
20479443,55347
20485653,55350
20491857,55353
20497087,55346
20503330,55344
20509560,55353
20521245,55350
20527517,55345
20533745,55339
20539946,55350
20546196,55345
20553077,55349
20559296,55352
20565553,55347
20571833,55348
20577080,55344
20583347,55348
20589586,55349
20595806,55355
20602014,55352
20608273,55353
20614516,55344
20620020,55346
20626252,55341
20631490,55349
20637681,55357
20643909,55348
20655644,55353
20661868,55349
20668061,55352
20674289,55359
20680528,55351
20686720,55354
20692981,55358
20699212,55355
20705464,55347
20711714,55351
20717958,55353
20724143,55348
20730370,55356
20736618,55343
20742830,55352
20749044,55356
20754243,55352
20760456,55347
20766682,55350
20772959,55341
20779224,55348
20790915,55368
20797137,55368
20803378,55352
20809613,55366
20815833,55364
20822032,55369
20828286,55367
20834522,55362
20840760,55367
20846998,55371
20852240,55364
20858481,55367
20864689,55371
20870919,55379
20877187,55371
20883448,55367
20888911,55368
20895136,55384
20900388,55370
20906617,55374
20912866,55380
20919052,55380
20925287,55372
20931525,55362
20937720,55365
20943954,55352
20950154,55360
20956367,55351
20962549,55356
20968797,55349
20975655,55347
20981941,55348
20987450,55349
20993714,55343
20999898,55337
21006076,55344
21012314,55329
21018519,55336
21023744,55339
21030017,55335
21035464,55335
21041685,55331
21047928,55347
21059363,55286
21065567,55287
21071724,55284
21077929,55287
21084123,55278
21090343,55275
21096568,55270
21109635,55275
21114891,55265
21121121,55284
21127376,55272
21133584,55271
21139759,55269
21145951,55268
21151418,55279
21157619,55273
21162845,55272
21169045,55275
21175302,55270
21181526,55266
21193218,55257
21200068,55259
21206298,55250
21212495,55253
21218643,55254
21224841,55253
21231052,55248
21237228,55253
21243401,55249
21249610,55258
21255815,55242
21262037,55252
21268258,55252
21274500,55248
21280743,55250
21285949,55247
21292189,55253
21297660,55243
21303862,55243
21310057,55259
21316258,55252
21327637,55251
21333861,55261
21340070,55258
21346266,55256
21352440,55260
21358626,55248
21364821,55259
21370995,55257
21377209,55257
21383426,55253
21389649,55260
21395893,55253
21402109,55252
21409007,55248
21415211,55262
21420695,55258
21426876,55266
21432108,55264
21438327,55262
21444541,55269
21450764,55264
21462465,55284
21468640,55285
21474869,55277
21481026,55278
21487263,55277
21493501,55285
21499697,55287
21505976,55278
21512217,55280
21518447,55283
21524723,55279
21529977,55286
21536246,55286
21542474,55290
21548705,55286
21554977,55284
21561183,55280
21566659,55285
21572876,55283
21579097,55285
21585331,55286
21596826,55291
21603079,55284
21609314,55277
21615525,55289
21622402,55275
21628651,55280
21634933,55270
21641102,55274
21647344,55276
21653547,55272
21659818,55281
21665305,55266
21671509,55267
21677762,55266
21684008,55261
21690223,55264
21695456,55256
21700939,55247
21707151,55252
21713288,55251
21719540,55248
21731006,55197
21737241,55197
21743452,55197
21749662,55197
21755890,55187
21762123,55191
21768323,55195
21774574,55182
21780858,55189
21787085,55185
21793286,55180
21798728,55176
21804951,55175
21811163,55179
21817306,55175
21823542,55171
21829766,55177
21835663,55170
21841933,55171
21848169,55172
21854419,55164
21866099,55153
21872369,55160
21878587,55158
21884817,55159
21891034,55161
21897264,55153
21903473,55149
21909682,55152
21915938,55157
21922166,55163
21928401,55164
21933667,55155
21939932,55159
21946137,55153
21952341,55152
21958544,55151
21964770,55156
21969577,55150
21975811,55159
21982030,55151
21988250,55150
21999713,55153
22005982,55158
22012211,55154
22018449,55158
22024670,55152
22030893,55163
22037106,55156
22043998,55158
22050263,55162
22056461,55162
22062645,55159
22068151,55164
22074409,55158
22080650,55159
22086892,55158
22093113,55160
22099315,55164
22103782,55156
22110043,55167
22116290,55162
22122486,55166
22134176,55189
22140400,55181
22146622,55174
22152828,55181
22159065,55193
22165232,55181
22171395,55191
22177582,55183
22183799,55184
22190013,55188
22196190,55187
22201418,55186
22207607,55193
22213864,55198
22220024,55190
22226212,55197
22232400,55198
22237937,55201
22244088,55193
22250324,55192
22257043,55193
22268718,55217
22274942,55224
22281137,55205
22287312,55226
22293476,55225
22299623,55220
22305862,55224
22312136,55223
22318331,55219
22324547,55220
22330750,55223
22335960,55224
22342143,55222
22348357,55233
22361181,55232
22367411,55227
22372851,55231
22378997,55235
22385192,55229
22396661,55172
22402866,55170
22409039,55169
22415270,55167
22421453,55174
22427678,55171
22433862,55164
22440055,55161
22446276,55163
22452470,55163
22458673,55159
22464843,55162
22470285,55152
22477117,55154
22483310,55150
22489498,55154
22495681,55146
22501900,55145
22507118,55148
22513336,55142
22519524,55141
22525721,55130
22531919,55097
22538117,55096
22544321,55101
22550498,55095
22556677,55094
22562863,55103
22569072,55092
22575286,55092
22581497,55103
22587720,55096
22593974,55105
22600181,55105
22606433,55089
22612646,55098
22618840,55098
22624996,55104
22631208,55093
22637431,55093
22642985,55095
22648430,55102
22654639,55098
22666083,55089
22672288,55097
22678489,55100
22685338,55091
22691579,55088
22697820,55098
22704018,55092
22710222,55096
22716454,55097
22722659,55097
22728877,55095
22735120,55097
22740613,55089
22746881,55095
22753116,55096
22759233,55100
22765550,55095
22771773,55088
22776996,55091
22782487,55088
22788742,55101
22794936,55089
22801149,55116
22807406,55120
22813672,55128
22819904,55111
22826162,55110
22832369,55111
22838594,55118
22844811,55112
22851001,55117
22857250,55120
22863498,55116
22869716,55128
22874975,55122
22881223,55117
22887455,55124
22894218,55127
22900476,55125
22906672,55130
22912163,55122
22917355,55115
22923572,55126
22935305,55145
22941501,55152
22947746,55147
22953960,55146
22960141,55153
22966305,55150
22972489,55152
22978698,55152
22984910,55153
22991076,55149
22997307,55154
23003526,55158
23008779,55168
23014950,55153
23021144,55162
23027345,55154
23033525,55159
23039746,55159
23045207,55158
23050388,55159
23056617,55152
23062815,55160
23074479,55189
23080654,55191
23086850,55194
23093071,55190
23099275,55193
23105471,55199
23112225,55192
23118454,55193
23124657,55190
23130887,55194
23137099,55191
23143304,55197
23149480,55197
23155688,55195
23161931,55204
23168172,55203
23174373,55197
23179559,55204
23185009,55201
23191228,55206
23197401,55207
23208838,55197
23215016,55197
23221230,55193
23227467,55194
23233683,55192
23239854,55192
23246020,55186
23252247,55181
23258488,55177
23264732,55181
23270965,55178
23277234,55173
23283481,55174
23289647,55178
23295847,55170
23302042,55163
23308224,55162
23313673,55159
23319825,55165
23326043,55161
23332251,55157
23338444,55117
23344657,55113
23350881,55115
23357026,55112
23363223,55113
23369372,55112
23375587,55114
23381793,55107
23388005,55111
23394209,55108
23400396,55106
23406599,55110
23412777,55103
23418994,55112
23424210,55112
23430406,55105
23436603,55101
23442768,55100
23448211,55099
23454389,55098
23460571,55097
23466734,55096
23478163,55098
23484386,55095
23490567,55093
23496730,55098
23502916,55101
23509115,55099
23515293,55097
23521488,55092
23528356,55091
23534624,55095
23540899,55096
23547099,55091
23553322,55099
23558816,55105
23565050,55097
23571244,55097
23577492,55091
23582742,55100
23589006,55095
23594534,55103
23607378,55105
23613645,55110
23619975,55111
23626141,55118
23632353,55116
23638570,55114
23644813,55121
23651040,55110
23657297,55120
23663574,55120
23669845,55116
23676023,55116
23682224,55118
23687432,55121
23693574,55117
23699835,55116
23706054,55118
23711588,55115
23717811,55113
23723067,55115
23729282,55127
23735552,55123
23741789,55125
23748645,55153
23754915,55150
23761158,55152
23767362,55153
23773567,55150
23779774,55148
23786000,55155
23792243,55157
23798507,55146
23804687,55151
23810948,55154
23817163,55149
23822655,55164
23828880,55167
23835084,55164
23841271,55156
23846482,55149
23852582,55154
23858029,55168
23864292,55166
23870534,55165
23876796,55167
23888272,55193
23894481,55197
23900702,55194
23906917,55197
23913145,55199
23919292,55196
23925480,55198
23931692,55195
23937886,55206
23944081,55202
23950273,55211
23955697,55203
23962601,55205
23968832,55207
23975034,55204
23980251,55207
23986454,55208
23991912,55204
23998114,55214
24004272,55208
24010444,55209
24021826,55230
24028063,55234
24034272,55244
24040477,55242
24046644,55234
24052876,55226
24059070,55235
24065283,55240
24071452,55242
24077690,55237
24083863,55241
24090042,55237
24096304,55244
24102487,55245
24108658,55244
24114083,55247
24120271,55242
24126429,55242
24132611,55252
24138841,55238
24145043,55248
24156493,55204
24162738,55191
24168944,55194
24175750,55194
24181970,55197
24188136,55187
24194373,55185
24200606,55181
24206785,55181
24213000,55182
24219172,55177
24225406,55179
24230910,55171
24237089,55177
24243300,55185
24248512,55180
24254655,55169
24260826,55176
24266260,55173
24272492,55170
24278705,55176
24284932,55170
24291165,55152
24297388,55148
24303661,55145
24309909,55145
24316091,55146
24322314,55149
24328550,55146
24334775,55143
24341024,55138
24347236,55144
24353466,55147
24359730,55142
24364963,55149
24371207,55146
24377423,55147
24382891,55148
24389746,55143
24395941,55143
24401189,55145
24407446,55147
24413690,55137
24419950,55140
24431667,55139
24437903,55146
24444116,55144
24450302,55150
24456565,55146
24462807,55143
24469050,55146
24475238,55141
24481430,55145
24487681,55144
24493924,55150
24499153,55151
24505381,55157
24511577,55150
24517754,55144
24524034,55150
24530205,55147
24535659,55150
24541897,55153
24548078,55147
24554292,55156
24565717,55179
24571925,55178
24578167,55178
24584378,55180
24590575,55177
24597382,55179
24603665,55180
24609914,55183
24616112,55180
24622323,55175
24628495,55184
24634001,55176
24640205,55185
24646447,55178
24651664,55185
24657878,55182
24664103,55187
24669627,55185
24675886,55189
24682076,55179
24688302,55185
24699790,55210
24705984,55206
24712141,55215
24718378,55212
24724586,55214
24730810,55202
24737035,55209
24743271,55210
24749485,55208
24755713,55219
24761986,55216
24768223,55212
24774462,55216
24780671,55211
24786173,55219
24792376,55221
24798642,55211
24803853,55209
24810649,55215
24816940,55207
24823176,55205
24834893,55233
24841113,55235
24847343,55240
24860138,55242
24866383,55238
24872638,55241
24878914,55245
24885156,55238
24891398,55250
24897630,55244
24903130,55247
24909399,55238
24915633,55239
24921848,55250
24928081,55241
24933302,55241
24939536,55242
24945823,55237
24952054,55253
24963809,55215
24970088,55217
24976367,55211
24982531,55217
24988774,55215
24994987,55207
25001225,55212
25007445,55205
25013674,55206
25019926,55209
25026095,55201
25032973,55197
25038230,55206
25044461,55198
25050649,55201
25056133,55197
25062357,55193
25068607,55184
25074818,55187
25081055,55189
25087218,55186
25098662,55152
25104925,55146
25111164,55143
25117381,55150
25123568,55152
25129800,55141
25136033,55153
25142287,55147
25148498,55142
25154746,55147
25160952,55147
25167156,55142
25172638,55140
25178915,55146
25185140,55146
25190363,55140
25196561,55140
25202777,55132
25208270,55142
25214442,55134
25220655,55141
25232122,55140
25238352,55135
25245234,55131
25251450,55127
25257658,55130
25263851,55125
25270016,55127
25276207,55127
25282438,55132
25288630,55123
25294870,55133
25301098,55141
25306565,55126
25312759,55130
25318976,55141
25324226,55136
25330450,55140
25336653,55137
25342093,55126
25348282,55140
25354523,55136
25360714,55137
25366952,55146
25373162,55146
25379372,55152
25385562,55146
25391748,55148
25397954,55152
25404127,55145
25410338,55150
25416589,55144
25422794,55156
25429046,55151
25435272,55152
25441521,55147
25447773,55155
25454640,55158
25459890,55155
25466094,55158
25472315,55160
25477784,55159
25483987,55165
25490206,55161
25496445,55159
25507974,55190
25514178,55195
25520389,55196
25526598,55197
25532817,55198
25539008,55191
25545235,55200
25551460,55201
25557687,55195
25563861,55199
25570059,55194
25576262,55196
25581789,55200
25587988,55201
25593222,55202
25599392,55204
25605605,55203
25611044,55205
25617248,55213
25623464,55176
25629668,55214
25641169,55248
25647404,55240
25653590,55242
25659764,55248
25666480,55236
25672707,55247
25678926,55239
25685111,55242
25691355,55241
25697570,55246
25703736,55246
25709941,55247
25715417,55246
25721606,55246
25726800,55254
25733002,55248
25739176,55250
25745421,55260
25751649,55259
25757837,55259
25764025,55258
25775667,55272
25781884,55274
25788111,55262
25794310,55267
25800476,55264
25806655,55257
25812883,55260
25819053,55256
25825254,55253
25831468,55253
25837636,55258
25843825,55249
25850031,55253
25856199,55259
25861374,55254
25867532,55259
25873748,55249
25880479,55254
25885951,55244
25892138,55244
25898294,55249
25904469,55241
25910623,55234
25916818,55227
25923008,55229
25929217,55227
25935386,55228
25941582,55221
25947742,55231
25953940,55225
25960154,55222
25966368,55230
25972561,55227
25978811,55223
25984035,55226
25990256,55230
25995732,55228
26001917,55233
26008062,55235
26014281,55229
26020464,55225
26026710,55230
26032894,55236
26039056,55226
26050475,55234
26056673,55229
26062853,55226
26069040,55223
26075211,55224
26081407,55235
26088253,55228
26094515,55232
26107588,55230
26113746,55238
26120022,55229
26125249,55233
26131455,55230
26137669,55231
26143835,55242
26149315,55232
26155511,55232
26161684,55230
26167904,55233
26179361,55252
26185569,55250
26191735,55251
26197953,55253
26204130,55249
26210326,55248
26216500,55249
26222729,55256
26228938,55254
26235147,55254
26241384,55249
26247600,55246
26253043,55254
26259235,55261
26265404,55262
26271598,55265
26277777,55258
26283979,55258
26290228,55259
26296410,55256
26302626,55262
26314678,55277
26320895,55285
26327079,55275
26333271,55278
26339489,55277
26345667,55286
26351849,55282
26358018,55278
26364200,55277
26370429,55285
26376614,55287
26382828,55283
26388269,55289
26394441,55285
26399682,55293
26405861,55291
26412013,55289
26418213,55293
26423673,55290
26429881,55295
26436095,55291
26442287,55289
26448482,55318
26454665,55311
26460916,55314
26467158,55317
26473406,55315
26479648,55321
26485934,55325
26492156,55330
26498338,55321
26504558,55328
26510792,55320
26517649,55320
26522906,55322
26529119,55323
26534538,55322
26540716,55319
26546953,55313
26553115,55323
26558306,55323
26564554,55318
26570788,55320
26577040,55316
26588777,55300
26594988,55296
26601213,55294
26607454,55290
26613676,55288
26619913,55286
26626139,55293
26632367,55294
26638620,55292
26644837,55293
26651084,55281
26657284,55289
26663524,55280
26668792,55286
26675032,55282
26681259,55279
26687514,55282
26692959,55290
26699170,55282
26705413,55274
26711669,55282
26723118,55268
26729936,55272
26736166,55269
26742373,55271
26748635,55269
26754795,55263
26760997,55266
26767188,55272
26773396,55267
26779615,55266
26785882,55279
26792143,55271
26797627,55276
26802846,55273
26809053,55260
26815258,55278
26821467,55272
26826984,55272
26833214,55272
26839417,55271
26845639,55275
26857068,55262
26863267,55262
26869491,55273
26875718,55262
26881938,55262
26888168,55271
26894394,55268
26900619,55257
26906863,55274
26913100,55268
26919320,55274
26925552,55268
26931064,55273
26936290,55280
26943048,55265
26949273,55265
26955471,55267
26961662,55274
26967915,55273
26974080,55273
26980316,55273
26991985,55284
26998136,55290
27004378,55294
27010612,55292
27016828,55295
27023058,55289
27029302,55293
27035503,55296
27041748,55297
27048022,55295
27054270,55310
27060491,55290
27065716,55302
27071189,55291
27077412,55286
27083657,55301
27089866,55305
27096136,55304
27101349,55306
27107538,55301
27113790,55303
27120076,55306
27126309,55324
27132528,55320
27138728,55320
27144976,55314
27151162,55320
27158069,55326
27164291,55317
27170503,55321
27176724,55321
27182929,55326
27189138,55323
27195382,55323
27200885,55328
27206113,55322
27212347,55332
27218575,55327
27224802,55321
27231044,55321
27236565,55338
27242710,55336
27248965,55329
27255186,55322
27266707,55334
27272909,55334
27279083,55324
27285297,55329
27291563,55333
27297813,55324
27304032,55327
27310295,55321
27316544,55329
27322794,55318
27329054,55328
27334517,55321
27339756,55315
27345987,55323
27359072,55319
27365228,55316
27371450,55316
27378269,55318
27384464,55305
27395862,55281
27402074,55287
27408258,55285
27414446,55289
27420622,55286
27426779,55291
27432954,55276
27439162,55281
27445402,55280
27451603,55283
27457804,55290
27463991,55277
27469438,55277
27475674,55276
27481852,55284
27488039,55274
27494257,55278
27500461,55274
27505651,55277
27511926,55281
27518155,55267
27529838,55270
27536041,55282
27542240,55268
27548419,55279
27554649,55274
27560871,55274
27567092,55277
27573328,55275
27579529,55276
27586380,55277
27592601,55272
27598759,55283
27603341,55274
27609556,55277
27615755,55272
27621904,55268
27628060,55271
27634255,55272
27639742,55279
27645995,55269
27652209,55279
27658397,55275
27664595,55287
27670789,55283
27677028,55289
27683188,55276
27689359,55284
27695557,55283
27701741,55291
27707970,55288
27714136,55294
27720345,55293
27726467,55288
27732673,55286
27737932,55289
27744172,55287
27750386,55293
27756614,55298
27762815,55289
27769107,55294
27774631,55299
27780862,55296
27787081,55289
27793306,55287
27805427,55316
27811599,55314
27817789,55315
27824057,55317
27830291,55312
27836525,55318
27842763,55318
27848921,55317
27855166,55317
27861385,55319
27867610,55314
27872348,55324
27878597,55327
27884805,55326
27891016,55319
27897217,55324
27903407,55319
27908641,55322
27914908,55322
27921177,55318
27927417,55322
27939174,55344
27945379,55347
27951603,55337
27957796,55348
27964045,55352
27970214,55352
27976442,55356
27982679,55349
27988913,55353
27995157,55352
28001414,55353
28007518,55357
28013766,55357
28019982,55356
28026214,55355
28032399,55352
28038667,55352
28043906,55350
28050132,55350
28056329,55351
28062561,55347
28074244,55307
28080472,55313
28086705,55314
28092902,55310
28099133,55311
28105390,55309
28111625,55303
28117864,55309
28124075,55312
28130337,55306
28136554,55312
28141807,55308
28147338,55302
28153621,55309
28159825,55300
28166017,55311
28172207,55305
28177404,55307
28183592,55301
28189795,55306
28196004,55300
28207671,55282
28213853,55286
28220654,55288
28226890,55285
28233101,55281
28239315,55286
28245561,55277
28251841,55280
28258055,55287
28264272,55285
28270481,55283
28275684,55288
28281903,55286
28288085,55286
28294301,55282
28300477,55283
28306670,55277
28312066,55283
28318273,55285
28324432,55281
28330633,55285
28342090,55262
28348272,55265
28354481,55270
28360671,55265
28366874,55266
28373063,55268
28379317,55266
28385520,55269
28391719,55271
28397956,55268
28404168,55278
28409635,55277
28415852,55286
28422000,55285
28428219,55287
28435106,55279
28441321,55258
28446563,55290
28452730,55300
28458874,55286
28465085,55292
28476760,55327
28482956,55331
28489152,55331
28495364,55325
28501555,55330
28507726,55335
28513949,55334
28520150,55338
28526384,55338
28532614,55334
28538870,55339
28544104,55344
28550293,55342
28555744,55342
28561958,55351
28568156,55353
28574366,55350
28580529,55352
28586743,55349
28592955,55351
28599140,55356
28611967,55382
28618236,55375
28624471,55373
28630664,55378
28636851,55379
28643066,55376
28649983,55383
28656233,55373
28662482,55380
28668724,55385
28673980,55378
28680237,55385
28685785,55386
28692015,55386
28698232,55380
28704420,55386
28710677,55393
28715916,55387
28722160,55392
28728404,55391
28734667,55400
28746408,55382
28752637,55387
28758852,55377
28765060,55382
28771260,55383
28777493,55383
28783756,55376
28790000,55374
28796208,55380
28802344,55373
28807591,55380
28813776,55371
28820050,55367
28826249,55370
28832425,55367
28838634,55370
28844941,55362
28850384,55363
28856654,55357
28863555,55359
28869807,55364
28881287,55333
28887479,55338
28893697,55334
28899944,55338
28906180,55336
28912438,55340
28918666,55336
28924962,55338
28931181,55341
28937434,55348
28942896,55341
28949154,55338
28955399,55333
28960604,55344
28966786,55343
28973046,55338
28979301,55337
28984791,55353
28991041,55344
28997304,55338
29003514,55349
29015035,55344
29021271,55348
29027474,55354
29033695,55352
29039942,55355
29046157,55354
29052437,55353
29058658,55353
29064934,55351
29071126,55346
29077351,55357
29083598,55363
29089816,55345
29095248,55356
29101487,55358
29107739,55363
29113966,55355
29119171,55356
29125410,55363
29131664,55352
29137935,55358
29149642,55395
29155855,55392
29162081,55393
29168308,55394
29174578,55400
29180856,55404
29187108,55406
29193319,55392
29199569,55404
29205792,55405
29211049,55412
29217271,55413
29223491,55408
29228975,55413
29235209,55408
29241418,55416
29247660,55414
29253879,55412
29260103,55414
29266316,55412
29272596,55422
29284008,55467
29290913,55472
29297088,55473
29303292,55482
29309529,55480
29315713,55483
29321968,55485
29328232,55489
29334444,55491
29340661,55483
29346159,55496
29352357,55507
29358596,55512
29363809,55517
29370007,55520
29376234,55520
29382509,55519
29388000,55520
29394259,55522
29400528,55529
29406744,55533
29418247,55577
29424467,55580
29430665,55578
29436918,55580
29443130,55589
29449323,55591
29455545,55584
29461758,55590
29467959,55593
29474185,55590
29480417,55589
29486602,55587
29492801,55595
29498275,55594
29505113,55596
29511297,55599
29517522,55598
29522766,55601
29529026,55595
29535207,55593
29541450,55594
29553059,55622
29559333,55613
29565589,55609
29571788,55624
29578032,55609
29584246,55623
29590413,55617
29596724,55613
29602974,55612
29609208,55619
29615469,55613
29620754,55620
29627023,55618
29632504,55618
29638732,55616
29644943,55619
29651172,55612
29657416,55620
29663660,55620
29669834,55617
29676112,55615
29687536,55614
29693758,55624
29700024,55613
29706218,55621
29713053,55625
29719247,55627
29725469,55622
29731681,55631
29737826,55633
29744033,55628
29750279,55634
29755777,55632
29761999,55632
29767149,55634
29773383,55634
29779589,55631
29785770,55641
29792040,55637
29797547,55633
29803740,55638
29809975,55633
29816191,55635
29822421,55618
29828700,55607
29834930,55610
29841182,55609
29847400,55606
29860237,55615
29866452,55613
29872737,55613
29878954,55614
29884434,55605
29890628,55611
29895886,55604
29902070,55614
29908276,55609
29914489,55624
29920684,55618
29926170,55624
29933067,55623
29939300,55631
29945565,55627
29951787,55664
29958042,55673
29964268,55676
29970454,55681
29976636,55677
29982832,55681
29989036,55682
29995201,55677
30001412,55679
30007645,55676
30013872,55676
30019095,55682
30025349,55671
30030787,55673
30036964,55680
30043235,55687
30049464,55676
30055641,55681
30060839,55677
30067047,55678
30073202,55678
30079426,55676
30091213,55673
30097456,55677
30103655,55671
30109906,55674
30116100,55674
30122308,55668
30128513,55679
30134724,55666
30141535,55675
30147829,55666
30153348,55667
30159603,55678
30165843,55675
30172084,55671
30178285,55676
30184475,55677
30190689,55665
30195914,55667
30202119,55670
30208333,55671
30214557,55669
30226236,55660
30232423,55667
30238656,55669
30244876,55657
30251073,55660
30257261,55660
30263474,55662
30269658,55670
30275881,55662
30282107,55662
30287378,55670
30293608,55666
30299764,55645
30305975,55657
30312159,55658
30318376,55660
30324579,55659
30330039,55652
30336283,55654
30342507,55657
30348755,55655
30360822,55650
30367000,55636
30373216,55650
30379394,55648
30385569,55642
30391745,55655
30397958,55647
30404143,55645
30410378,55643
30416596,55643
30422019,55636
30428244,55640
30434394,55641
30439598,55640
30445785,55643
30451974,55645
30458108,55647
30464299,55654
30470518,55652
30476708,55646
30482902,55651
30494573,55670
30500754,55681
30506970,55680
30513164,55678
30519392,55670
30525579,55681
30531797,55676
30538025,55680
30544220,55683
30550425,55677
30555625,55676
30561843,55677
30568615,55673
30574045,55685
30580251,55679
30586407,55685
30592613,55685
30598764,55684
30603999,55691
30610166,55686
30616406,55686
30622617,55696
30628779,55741
30634985,55728
30641170,55729
30647409,55732
30653588,55733
30659813,55734
30666014,55734
30672202,55737
30678427,55736
30684669,55740
30690147,55736
30696377,55757
30702618,55758
30708823,55755
30715061,55758
30721265,55765
30727520,55763
30733709,55755
30738930,55762
30745149,55762
30751363,55763
30757572,55767
30769224,55753
30775404,55745
30782232,55757
30788396,55747
30794558,55743
30800794,55743
30807049,55754
30813318,55743
30819525,55741
30824788,55747
30831038,55742
30837203,55748
30843416,55741
30848926,55741
30855121,55736
30861313,55740
30867560,55737
30872776,55728
30879014,55739
30885189,55736
30891426,55735
30897670,55734
30903890,55730
30910115,55726
30916340,55722
30922547,55720
30928752,55728
30934995,55731
30941208,55732
30947463,55725
30953689,55721
30959174,55726
30965414,55733
30971632,55725
30977873,55726
30983081,55726
30989946,55724
30996216,55723
31002462,55727
31007956,55730
31014179,55729
31020408,55730
31026652,55732
31038114,55732
31044341,55732
31050565,55729
31056759,55731
31062927,55731
31069132,55735
31075369,55738
31081619,55739
31087892,55744
31093344,55742
31099592,55738
31112417,55747
31118628,55734
31124905,55737
31131119,55734
31136321,55736
31142557,55733
31148804,55739
31155038,55738
31161267,55733
31167501,55749
31173683,55743
31179968,55742
31186190,55753
31192409,55749
31198632,55748
31204890,55748
31211628,55741
31217857,55744
31223354,55747
31229617,55746
31235808,55745
31242050,55745
31248248,55748
31253466,55745
31259655,55739
31265904,55750
31271381,55744
31277616,55751
31283881,55751
31290115,55739
31296360,55745
31307827,55754
31314019,55759
31320239,55758
31326467,55756
31332627,55756
31338852,55761
31345098,55758
31351354,55755
31356842,55755
31363054,55753
31369239,55759
31375482,55751
31381728,55765
31386949,55753
31393164,55746
31399396,55760
31405622,55757
31411836,55763
31418111,55760
31424958,55744
31431198,55755
31442896,55727
31449101,55726
31455304,55735
31461504,55720
31467720,55725
31473928,55724
31480207,55723
31486421,55719
31491615,55728
31497789,55732
31503982,55719
31510113,55716
31516323,55715
31521796,55714
31528046,55713
31534242,55719
31540458,55713
31545705,55710
31551967,55709
31558186,55709
31564437,55713
31576123,55682
31582346,55685
31588542,55685
31594791,55693
31601003,55682
31607204,55682
31613425,55690
31619604,55685
31624813,55684
31631062,55686
31637830,55686
31644032,55679
31650220,55682
31655749,55684
31662006,55687
31668247,55694
31674483,55690
31679721,55690
31685935,55690
31692116,55691
31698355,55688
31704552,55689
31710759,55693
31716973,55691
31723170,55686
31729381,55695
31735623,55694
31741791,55688
31748076,55690
31754320,55692
31759761,55684
31765989,55697
31772198,55691
31778418,55695
31784618,55687
31789811,55688
31796035,55697
31802231,55700
31808436,55701
31814649,55700
31820909,55700
31827136,55691
31833392,55701
31839587,55700
31852037,55713
31858215,55726
31864421,55718
31870635,55723
31876851,55731
31883122,55727
31889349,55724
31894848,55733
31901102,55727
31907298,55729
31913514,55722
31919725,55725
31924970,55730
31931163,55726
31937360,55724
31943576,55727
31949846,55728
31955301,55730
31961532,55729
31967763,55718
31974002,55726
31985459,55739
31991652,55737
31997922,55741
32004150,55747
32010405,55745
32016634,55740
32022859,55734
32028377,55738
32034649,55735
32040903,55739
32047144,55733
32053373,55728
32060179,55734
32066431,55731
32072671,55729
32078930,55730
32085138,55732
32090346,55728
32096532,55733
32102746,55728
32108956,55733
32120656,55699
32126910,55694
32133120,55702
32139357,55697
32145608,55696
32151848,55694
32158070,55689
32163294,55685
32169528,55684
32175736,55686
32182015,55688
32188214,55679
32193674,55682
32199880,55682
32206087,55684
32212321,55686
32218578,55692
32223765,55687
32230008,55684
32236262,55682
32242508,55682
32254198,55678
32260426,55680
32266623,55674
32273462,55680
32279712,55674
32285954,55675
32292172,55678
32297407,55680
32303645,55680
32309896,55676
32316110,55677
32322346,55683
32327829,55687
32333999,55677
32340208,55678
32346452,55675
32352707,55677
32365516,55677
32371793,55681
32383650,55685
32389905,55686
32396131,55687
32402218,55686
32408463,55698
32414704,55692
32420925,55691
32427144,55695
32433363,55700
32439585,55694
32445795,55688
32452026,55691
32457239,55696
32463456,55698
32469612,55695
32475830,55699
32482111,55691
32488934,55708
32495228,55700
32501423,55696
32507654,55703
32519413,55712
32525657,55714
32531909,55713
32538058,55719
32544256,55717
32550442,55715
32556675,55723
32561919,55715
32568161,55715
32574383,55716
32580590,55710
32586797,55710
32592301,55710
32598483,55717
32604722,55717
32610956,55718
32617161,55719
32623344,55719
32629560,55722
32635747,55723
32641971,55721
32653465,55739
32659616,55747
32665829,55733
32672112,55738
32678367,55746
32684596,55740
32690845,55745
32696352,55739
32703151,55741
32709406,55735
32715620,55739
32721800,55738
32727039,55744
32733228,55738
32739439,55740
32745633,55737
32751850,55724
32758117,55730
32764348,55732
32769838,55731
32776093,55731
32787562,55689
32793786,55694
32800012,55694
32806216,55696
32812439,55690
32818636,55695
32824898,55684
32830396,55686
32836638,55686
32842827,55681
32849029,55687
32855293,55691
32861550,55679
32867793,55679
32874034,55679
32880231,55677
32886461,55672
32892704,55672
32898920,55669
32904121,55671
32910398,55669
32922731,55647
32928960,55650
32935175,55653
32941325,55656
32947487,55644
32953653,55654
32959887,55657
32965148,55649
32971354,55652
32977536,55648
32983745,55653
32989962,55654
32996165,55662
33001594,55653
33007756,55656
33013978,55657
33020170,55650
33026348,55665
33032557,55657
33037760,55649
33043980,55657
33050189,55652
33056392,55660
33062575,55664
33068782,55665
33074929,55661
33081141,55658
33087368,55668
33093569,55669
33099026,55667
33105251,55668
33111448,55667
33117651,55672
33123821,55666
33130655,55672
33135850,55662
33142045,55669
33148217,55668
33154453,55674
33160657,55669
33166863,55678
33172309,55668
33178496,55678
33184703,55677
33196137,55708
33202354,55706
33208509,55717
33214697,55712
33220868,55713
33227047,55713
33233269,55716
33239486,55712
33245689,55709
33251871,55716
33258061,55713
33264211,55722
33269690,55722
33275904,55717
33282087,55729
33288327,55717
33294510,55729
33300713,55727
33306939,55725
33313106,55720
33319317,55729
33330748,55750
33337425,55754
33343646,55755
33349814,55755
33356014,55752
33362198,55748
33368417,55751
33373855,55753
33380020,55746
33386205,55749
33392473,55758
33398707,55761
33404921,55763
33411076,55767
33417254,55753
33423413,55761
33429646,55766
33435902,55767
33442105,55763
33447308,55767
33453540,55763
33465190,55796
33471360,55788
33477513,55789
33483688,55790
33489877,55790
33496100,55789
33502305,55790
33507494,55796
33513719,55797
33519949,55791
33526148,55799
33532360,55791
33538557,55796
33544745,55796
33551602,55794
33557802,55794
33564036,55787
33570207,55801
33576426,55798
33581880,55803
33588084,55803
33599492,55838
33612303,55829
33618510,55826
33624786,55828
33631010,55832
33636466,55827
33642689,55834
33648920,55829
33655114,55834
33661303,55839
33667530,55833
33673699,55843
33679896,55846
33686117,55839
33692302,55843
33698473,55838
33704693,55839
33710914,55846
33717120,55841
33728574,55867
33734771,55863
33740970,55866
33747147,55873
33753386,55877
33759517,55868
33766209,55858
33771826,55872
33778018,55872
33784205,55866
33790447,55868
33796649,55871
33802812,55873
33808982,55866
33814453,55866
33820626,55871
33826794,55869
33833035,55870
33839259,55862
33845462,55860
33850707,55874
33856885,55861
33863054,55839
33869248,55850
33875474,55852
33881675,55840
33887819,55843
33894052,55849
33900266,55851
33905736,55854
33911931,55839
33918081,55849
33924300,55844
33930491,55837
33936693,55848
33942894,55832
33948088,55838
33954276,55837
33960526,55836
33966759,55820
33972992,55830
33979832,55833
33985280,55828
33991473,55830
34002895,55806
34009064,55807
34015215,55800
34021450,55805
34027638,55801
34033818,55801
34039295,55802
34045478,55807
34051713,55804
34057988,55807
34064232,55800
34070457,55815
34076666,55801
34081850,55806
34088035,55799
34094192,55810
34100390,55802
34106574,55809
34112794,55806
34118992,55807
34125199,55806
34131445,55802
34137658,55803
34143871,55808
34150050,55806
34156213,55801
34162435,55804
34168625,55800
34174080,55800
34180283,55806
34186478,55808
34193272,55800
34199502,55804
34205682,55802
34211814,55805
34217057,55808
34223204,55805
34229418,55805
34235527,55811
34241752,55807
34248028,55810
34254228,55808
34259710,55807
34265899,55816
34277274,55819
34283507,55822
34289645,55819
34295820,55822
34302050,55813
34308239,55828
34314423,55829
34320601,55832
34326804,55825
34332996,55825
34339154,55828
34345351,55824
34351527,55826
34357705,55825
34363908,55830
34370126,55835
34376387,55833
34382582,55835
34388786,55832
34394237,55837
34401063,55840
34412458,55850
34418639,55846
34424809,55847
34430989,55839
34437151,55844
34443381,55841
34448814,55842
34455040,55840
34461246,55840
34467432,55844
34473616,55841
34479807,55842
34486022,55848
34491216,55849
34497449,55849
34503642,55847
34509854,55848
34516053,55850
34522211,55854
34527731,55840
34533937,55845
34540156,55854
34546372,55881
34552593,55888
34558783,55889
34565026,55884
34571237,55884
34577468,55885
34582719,55882
34588953,55883
34595229,55880
34601486,55886
34607644,55883
34614514,55876
34620762,55888
34626264,55882
34632480,55887
34638758,55878
34644965,55888
34651129,55881
34657333,55881
34662541,55885
34668810,55877
34674980,55883
34686636,55889
34692829,55892
34699031,55883
34705236,55881
34711485,55880
34716746,55881
34723001,55890
34729195,55882
34735401,55882
34741545,55887
34747750,55886
34753945,55886
34760128,55877
34766348,55880
34772560,55883
34778827,55885
34785051,55883
34791294,55884
34796746,55881
34802968,55882
34809103,55880
34820570,55841
34827378,55842
34833568,55834
34839772,55837
34846015,55833
34851487,55827
34864334,55833
34870570,55836
34876797,55829
34883038,55825
34889257,55829
34895487,55827
34901717,55822
34907952,55823
34914203,55816
34920425,55820
34926670,55821
34932931,55813
34939129,55806
34950573,55794
34956761,55792
34962958,55793
34969161,55800
34975354,55807
34980828,55795
34987076,55797
34993254,55789
34999396,55799
35005592,55802
35011803,55796
35018012,55796
35024163,55793
35029356,55799
35035507,55798
35042317,55798
35048531,55795
35054712,55790
35060945,55796
35067111,55783
35073337,55783
35084980,55790
35091205,55792
35097379,55779
35103559,55793
35109749,55798
35115029,55790
35121231,55793
35127459,55797
35133660,55805
35139835,55798
35146045,55785
35152203,55792
35158403,55785
35163847,55799
35170025,55795
35176236,55793
35182419,55788
35188640,55791
35194901,55791
35200136,55785
35206369,55795
35212619,55795
35218859,55804
35225058,55801
35231231,55802
35237435,55800
35243608,55803
35249200,55811
35256021,55810
35262241,55816
35268440,55819
35274635,55809
35280832,55808
35287013,55813
35293161,55812
35298564,55805
35304753,55807
35310967,55804
35317141,55807
35323306,55813
35329488,55812
35334732,55818
35340949,55813
35347149,55815
35358809,55838
35365052,55830
35371235,55833
35377423,55845
35383605,55838
35389808,55843
35396025,55841
35402229,55839
35408414,55843
35414616,55842
35420779,55848
35426999,55852
35433194,55842
35439377,55843
35445621,55844
35451758,55848
35458028,55849
35464834,55838
35470078,55848
35476278,55844
35482482,55851
35494121,55880
35500307,55870
35506464,55871
35512651,55874
35518840,55877
35524062,55873
35530278,55868
35536479,55874
35542677,55864
35548884,55871
35555066,55869
35561247,55868
35567434,55868
35572876,55859
35579048,55866
35585267,55866
35591465,55858
35597647,55872
35603873,55869
35610073,55848
35616267,55861
35627715,55837
35633863,55836
35640074,55843
35646272,55836
35652482,55843
35657924,55836
35664140,55829
35670335,55842
35677172,55833
35683442,55842
35689657,55826
35695846,55822
35702073,55826
35707284,55828
35713567,55827
35719800,55829
35726067,55826
35732271,55819
35738523,55822
35744043,55821
35750251,55823
35756483,55821
35762701,55803
35768873,55802
35775089,55800
35781283,55806
35787541,55800
35792771,55799
35798987,55800
35805214,55800
35811464,55802
35817651,55801
35823850,55799
35830079,55803
35836241,55803
35841750,55802
35847999,55792
35854222,55799
35860451,55799
35866687,55798
35872928,55800
35878113,55801
35884373,55791
35896721,55786
35902920,55797
35909135,55790
35915367,55791
35921622,55793
35926871,55797
35933097,55800
35939336,55787
35945553,55802
35951758,55797
35957888,55800
35964133,55793
35970364,55804
35975802,55804
35982053,55795
35988285,55798
35994509,55803
36000741,55801
36006962,55798
36012188,55800
36018436,55804
36024639,55798
36030877,55829
36037095,55819
36043325,55829
36049546,55833
36055773,55837
36061308,55831
36067499,55838
36073717,55830
36079906,55830
36086142,55839
36092313,55825
36098520,55832
36111906,55835
36118138,55824
36124451,55830
36130744,55832
36136988,55829
36142214,55828
36148471,55831
36154704,55832
36166496,55861
36172776,55853
36179026,55851
36185235,55858
36190484,55837
36196711,55865
36202926,55860
36209166,55859
36215415,55863
36221626,55864
36227832,55865
36234030,55863
36240243,55871
36245763,55867
36251992,55867
36258190,55867
36264375,55862
36270623,55864
36276839,55867
36283052,55874
36289290,55873
36300735,55865
36306985,55871
36313167,55859
36319996,55864
36325513,55858
36331740,55860
36337948,55866
36344156,55866
36350378,55852
36356606,55851
36362813,55862
36369042,55861
36375263,55848
36380476,55862
36386657,55861
36392882,55859
36399112,55845
36405342,55857
36410815,55853
36417030,55841
36423269,55850
36434726,55821
36440952,55815
36447138,55818
36453368,55818
36458772,55808
36464986,55817
36471205,55807
36477420,55812
36483644,55817
36489857,55819
36496069,55809
36502275,55811
36508507,55803
36513760,55811
36520030,55809
36526206,55813
36533019,55806
36539249,55807
36545520,55836
36551743,55808
36557978,55807
36569701,55804
36575921,55799
36582151,55791
36588369,55798
36593616,55798
36599837,55793
36606083,55802
36612327,55792
36618530,55793
36624765,55797
36631016,55795
36637226,55791
36643453,55799
36648939,55802
36655169,55793
36661387,55798
36667608,55795
36673823,55802
36680025,55797
36685221,55794
36691471,55800
36697675,55803
36703868,55804
36710094,55804
36716268,55800
36722444,55808
36727949,55808
36734175,55802
36740413,55809
36747239,55804
36753432,55810
36759711,55801
36765932,55797
36772127,55813
36778302,55813
36783511,55804
36789757,55809
36796021,55811
36802294,55809
36808548,55812
36814754,55810
36820181,55813
36826355,55811
36832579,55818
36844033,55836
36850252,55833
36856479,55839
36861990,55842
36868218,55843
36874437,55834
36880685,55843
36886865,55838
36893108,55838
36899346,55844
36905564,55847
36911825,55844
36918049,55843
36924270,55841
36930498,55845
36936777,55846
36943005,55844
36949230,55850
36954453,55840
36961333,55844
36967578,55839
36979260,55872
36985513,55869
36991740,55870
36996987,55866
37003165,55869
37009381,55866
37015574,55868
37021777,55864
37028037,55866
37034255,55872
37040503,55867
37046719,55863
37052224,55872
37058450,55862
37064687,55874
37070917,55870
37077168,55862
37083382,55864
37088648,55859
37094862,55871
37101073,55863
37107280,55866
37113542,55795
37119762,55806
37126029,55800
37131541,55802
37137751,55804
37143978,55798
37150187,55806
37156422,55790
37162695,55794
37168868,55787
37175718,55782
37181922,55781
37187113,55782
37193299,55779
37199514,55782
37205726,55780
37211903,55768
37218076,55770
37223514,55767
37229720,55760
37235938,55766
37247351,55699
37253562,55705
37259771,55700
37265224,55700
37271369,55700
37277526,55694
37283705,55698
37289909,55703
37296121,55687
37302342,55699
37308519,55691
37314666,55689
37320847,55691
37327058,55687
37333313,55686
37339543,55691
37345783,55688
37352026,55679
37364839,55686
37371125,55685
37377394,55656
37383630,55660
37390491,55655
37396052,55655
37402284,55656
37408531,55646
37414624,55646
37420884,55656
37427125,55640
37433366,55649
37439573,55653
37445804,55649
37452019,55655
37457499,55656
37463735,55663
37470003,55664
37476149,55665
37482337,55661
37488574,55662
37493824,55662
37500091,55665
37511753,55710
37517946,55707
37524159,55708
37529401,55716
37535643,55716
37541910,55732
37548169,55727
37554407,55727
37560617,55724
37566853,55726
37573115,55722
37579345,55732
37585568,55724
37591055,55732
37597225,55727
37604125,55731
37610350,55727
37616566,55731
37622782,55734
37628028,55732
37634248,55730
37645889,55733
37652125,55732
37658345,55729
37663605,55734
37669853,55732
37676145,55731
37682377,55730
37688591,55735
37694785,55735
37701042,55728
37707285,55730
37713476,55732
37719679,55735
37725172,55734
37731361,55731
37737644,55741
37743891,55736
37750120,55751
37756357,55743
37761555,55737
37767769,55731
37774027,55739
37780241,55756
37786471,55761
37792673,55756
37798098,55749
37804366,55758
37810626,55753
37817493,55758
37823729,55759
37829931,55750
37836169,55765
37842384,55760
37848610,55768
37854828,55766
37860068,55767
37866235,55772
37872453,55771
37878685,55769
37884953,55768
37891200,55773
37896697,55768
37902939,55774
37909150,55769
37920574,55738
37926764,55737
37932249,55734
37938483,55738
37944712,55733
37950946,55728
37957146,55725
37963336,55729
37969551,55725
37975796,55720
37982044,55716
37988248,55714
37994505,55715
38000761,55710
38007019,55717
38013205,55717
38019419,55710
38026210,55713
38031790,55709
38038071,55716
38044299,55707
38055712,55665
38061965,55662
38067458,55662
38073692,55661
38079932,55659
38086128,55658
38092343,55666
38098579,55645
38104833,55653
38111090,55651
38117319,55648
38123542,55650
38128811,55646
38135075,55648
38141337,55654
38147596,55653
38153747,55653
38160009,55652
38165440,55648
38171646,55651
38177853,55642
38189353,55628
38195560,55635
38201038,55629
38207260,55626
38213505,55624
38219732,55625
38225970,55628
38232158,55620
38239048,55625
38245279,55619
38251533,55623
38257763,55617
38262986,55622
38269174,55623
38275371,55618
38281613,55614
38287829,55616
38294095,55617
38299590,55614
38305795,55612
38312003,55605
38318206,55602
38324380,55604
38330630,55604
38335853,55598
38342085,55609
38348362,55613
38354600,55604
38360829,55620
38367083,55616
38373295,55614
38379499,55617
38385694,55600
38391892,55614
38397324,55608
38403512,55610
38409729,55610
38415945,55606
38422174,55608
38428407,55609
38433683,55608
38439907,55604
38446149,55610
38453047,55614
38464731,55635
38469955,55633
38476200,55632
38482451,55637
38488633,55630
38494834,55631
38501041,55634
38507235,55632
38513477,55640
38519699,55637
38525871,55637
38532144,55639
38538364,55641
38544628,55633
38550890,55637
38557156,55633
38563379,55631
38568818,55632
38575088,55632
38581223,55633
38587451,55636
38598891,55659
38604417,55656
38617277,55654
38623522,55669
38629806,55656
38636033,55658
38642248,55651
38648525,55651
38654713,55655
38660929,55658
38666435,55663
38673326,55661
38679598,55653
38685862,55654
38692091,55654
38697633,55655
38703834,55659
38710073,55657
38716293,55649
38727802,55595
38733284,55594
38739497,55594
38745758,55587
38752024,55587
38758250,55585
38764527,55584
38770756,55582
38776985,55576
38783186,55577
38789396,55570
38795635,55634
38800847,55564
38807100,55565
38813289,55557
38819552,55558
38825798,55553
38832094,55554
38838267,55549
38844467,55541
38850685,55552
38862405,55528
38867623,55525
38873822,55512
38880637,55527
38886941,55518
38893175,55525
38899444,55521
38905641,55521
38911841,55518
38918109,55523
38924356,55516
38930596,55524
38936080,55520
38942278,55515
38948433,55509
38954637,55514
38960861,55517
38967096,55516
38972327,55506
38978561,55509
38984778,55516
38996460,55502
39001662,55510
