87298726,28155
87300065,28143
87301405,28148
87302744,28139
87304083,28147
87305422,28136
87306760,28152
87308101,28137
87309440,28149
87310779,28138
87312117,28149
87313457,28158
87314796,28145
87316135,28132
87317475,28146
87318814,28136
87320154,28146
87321493,28127
87322832,28147
87324551,28126
87325892,28133
87327233,28139
87328575,28143
87329916,28141
87331255,28141
87332593,28141
87333933,28145
87335272,28145
87336611,28148
87337951,28150
87339290,28138
87340628,28146
87341967,28152
87343307,28132
87344646,28142
87345986,28145
87347325,28141
87348663,28142
87350003,28138
87351342,28148
87352681,28146
87354020,28138
87355359,28138
87356698,28146
87358038,28131
87359377,28141
87360715,28128
87362055,28141
87363395,28136
87364734,28142
87366073,28131
87367412,28141
87368751,28141
87370090,28142
87371429,28141
87372768,28148
87375373,28134
87376713,28143
87378053,28138
87379392,28153
87380732,28150
87382071,28138
87383409,28138
87384749,28138
87386087,28149
87387426,28136
87388765,28148
87390104,28145
87391443,28146
87392782,28139
87394121,28138
87395460,28146
87396800,28145
87398140,28151
87399478,28136
87400818,28150
87402159,28144
87403497,28149
87404836,28131
87406176,28151
87407514,28136
87408854,28153
87410193,28140
87411532,28140
87412872,28133
87414210,28151
87415550,28132
87416889,28135
87418227,28145
87419567,28134
87420907,28140
87422246,28150
87423586,28149
87424925,28140
87426266,28156
87427606,28135
87428944,28147
87430284,28135
87431623,28149
87432962,28137
87434301,28147
87435640,28129
87436980,28138
87438319,28131
87439658,28149
87440997,28151
87442335,28138
87443675,28130
87445014,28151
87446353,28128
87447692,28146
87449031,28142
87450370,28137
87451709,28136
87453048,28131
87454387,28149
87455727,28135
87457066,28137
87458405,28131
87459743,28144
87461082,28140
87462422,28135
87463761,28124
87465100,28144
87466439,28127
87467779,28139
87469118,28128
87470457,28141
87471796,28133
87473135,28134
87474474,28126
87475813,28138
87477151,28127
87478491,28154
87479830,28133
87481551,28141
87482891,28132
87484234,28139
87485573,28136
87486915,28125
87488254,28147
87489593,28122
87490932,28139
87492270,28127
87493610,28136
87494950,28127
87496289,28137
87497628,28125
87498967,28148
87500306,28135
87501646,28142
87502985,28127
87504324,28140
87505663,28137
87507002,28149
87508341,28136
87510946,28135
87512287,28131
87513626,28138
87514965,28148
87516303,28129
87517643,28130
87518982,28141
87520321,28141
87521660,28134
87522999,28130
87524338,28133
87525678,28133
87527017,28133
87528356,28136
87529694,28139
87531034,28133
87532372,28147
87533711,28133
87535051,28143
87536390,28134
87537728,28126
87539068,28141
87540407,28114
87541746,28131
87543085,28139
87544425,28137
87545764,28131
87547102,28131
87548440,28138
87549779,28138
87551119,28135
87552458,28131
87553798,28134
87555137,28120
87556475,28142
87557814,28119
87559155,28134
87560494,28125
87561833,28146
87563173,28128
87564512,28135
87565851,28132
87567190,28141
87568529,28133
87569869,28135
87571208,28129
87572547,28132
87573885,28123
87575225,28139
87576564,28145
87577904,28143
87579242,28119
87580582,28136
87581920,28137
87583260,28141
87584599,28127
87585939,28131
87587278,28143
87588617,28125
87589956,28144
87591294,28135
87592634,28137
87593973,28136
87595313,28140
87596652,28134
87597991,28129
87599331,28139
87600670,28142
87602009,28134
87603347,28143
87604687,28141
87606026,28140
87607364,28133
87608704,28133
87610043,28135
87611382,28143
87612721,28132
87614061,28138
87615400,28137
87616738,28134
87618077,28138
87619417,28136
87620756,28139
87622094,28136
87623433,28140
87624773,28140
87626112,28134
87627451,28136
87628790,28133
87630129,28138
87631467,28130
87632806,28140
87634146,28140
87635485,28137
87637204,28143
87638545,28143
87639886,28132
87641227,28146
87642569,28139
87643910,28145
87646513,28142
87647853,28137
87649192,28147
87650532,28137
87651872,28158
87653211,28137
87654549,28146
87655889,28146
87657227,28148
87658566,28144
87659906,28150
87661245,28143
87662584,28149
87663923,28139
87665262,28137
87666601,28144
87667940,28149
87669279,28130
87670618,28142
87671957,28138
87673296,28142
87674635,28146
87675974,28147
87677313,28148
87678652,28142
87679991,28136
87681330,28137
87682671,28160
87684010,28143
87685348,28146
87686687,28146
87688027,28154
87689365,28135
87690705,28150
87692044,28146
87693383,28161
87694722,28142
87696060,28156
87697400,28146
87698739,28154
87700077,28126
87701417,28154
87702756,28147
87704095,28156
87705434,28150
87706773,28155
87708111,28143
87709451,28151
87710791,28155
87712131,28151
87713470,28143
87714811,28137
87716150,28155
87717489,28153
87718829,28155
87720168,28152
87721508,28152
87722846,28138
87724186,28162
87725525,28140
87726864,28150
87728203,28142
87729542,28154
87730881,28154
87732220,28151
87733559,28145
87734897,28152
87736236,28144
87737576,28147
87738915,28143
87740254,28148
87741593,28147
87742932,28146
87744271,28146
87745610,28136
87746949,28142
87748288,28141
87749627,28144
87750966,28132
87752305,28141
87753644,28125
87754984,28138
87756323,28128
87757662,28136
87759001,28126
87760340,28131
87761679,28127
87763017,28140
87764357,28152
87765695,28123
87767034,28126
87768373,28128
87769712,28124
87771050,28126
87772390,28113
87773729,28121
87775068,28119
87776407,28118
87777746,28128
87779085,28128
87781690,28119
87783031,28111
87784370,28121
87785709,28101
87787048,28118
87788386,28108
87789725,28115
87791064,28102
87792404,28117
87793742,28100
87796698,28084
87798041,28087
87799383,28096
87800723,28094
87802061,28090
87803401,28085
87804740,28091
87806079,28086
87807419,28092
87808758,28088
87810098,28088
87811437,28093
87812775,28083
87814115,28082
87815454,28086
87816793,28083
87818131,28083
87819471,28102
87820810,28092
87822149,28084
87823487,28091
87824827,28089
87826166,28095
87827505,28083
87828844,28096
87830183,28083
87831522,28086
87832861,28085
87834199,28087
87835539,28093
87836877,28076
87838217,28086
87839556,28085
87840895,28088
87842234,28090
87843573,28095
87844911,28077
87846251,28081
87847590,28088
87848929,28090
87850268,28086
87851606,28086
87852946,28088
87854285,28084
87855624,28088
87856963,28089
87858302,28072
87859641,28091
87860980,28080
87862319,28094
87863658,28085
87864998,28076
87866338,28078
87867677,28086
87869016,28083
87870356,28085
87871696,28082
87873035,28087
87874374,28089
87875713,28089
87877052,28086
87878391,28082
87879730,28079
87881068,28077
87882408,28094
87883747,28083
87885086,28089
87886424,28095
87887764,28081
87889103,28078
87890441,28088
87891781,28078
87893120,28095
87894459,28087
87895798,28094
87897136,28083
87898476,28082
87899815,28084
87901154,28087
87902493,28079
87903832,28091
87905170,28090
87906510,28085
87907849,28097
87909188,28079
87910527,28090
87911866,28087
87913205,28093
87914545,28079
87915884,28093
87918489,28098
87919829,28096
87921168,28086
87922506,28076
87923845,28083
87925184,28087
87926524,28095
87927862,28091
87929202,28085
87930541,28083
87931880,28100
87933219,28096
87934558,28091
87935897,28089
87937235,28101
87938578,28080
87939916,28094
87941256,28091
87942595,28096
87943934,28091
87945273,28098
87946612,28091
87947951,28088
87949290,28092
87951011,28091
87952352,28097
87953694,28085
87955036,28095
87956377,28087
87957716,28086
87959056,28092
87960394,28095
87961734,28103
87963073,28091
87964412,28087
87965753,28105
87967092,28088
87968431,28105
87969770,28093
87971109,28110
87972447,28100
87973787,28100
87975125,28084
87976465,28091
87977804,28096
87979142,28098
87980481,28086
87981821,28106
87983160,28084
87984499,28101
87985838,28102
87987177,28094
87988516,28093
87989855,28096
87991194,28088
87992532,28083
87993872,28102
87995211,28089
87996550,28097
87997889,28087
87999229,28105
88000568,28082
88001907,28101
88003246,28087
88004585,28105
88005923,28089
88007263,28095
88008602,28085
88009941,28101
88011280,28084
88012619,28096
88013958,28083
88015297,28096
88016636,28093
88017975,28094
88019314,28082
88020653,28093
88021993,28090
88023332,28083
88024671,28090
88026010,28081
88027351,28099
88028690,28082
88030029,28083
88031368,28082
88032706,28084
88034046,28085
88035385,28092
88036724,28081
88038062,28093
88039402,28099
88040740,28095
88042079,28082
88043419,28099
88044758,28083
88046097,28087
88047436,28086
88048776,28090
88050115,28093
88051454,28089
88054059,28082
88055399,28096
88056738,28101
88058077,28079
88059416,28098
88060755,28079
88062095,28088
88063434,28087
88064772,28084
88066112,28093
88067452,28085
88068791,28094
88070130,28085
88071469,28087
88072808,28098
88074147,28098
88075486,28080
88076825,28090
88078164,28094
88079503,28100
88080841,28093
88082181,28093
88083520,28102
88084859,28101
88086198,28094
88087537,28093
88088875,28092
88090215,28090
88091554,28095
88092892,28094
88094232,28094
88095571,28089
88096910,28091
88098249,28090
88099588,28094
88100927,28088
88102266,28096
88103605,28098
88104944,28088
88106664,28100
88108004,28086
88109344,28101
88110687,28099
88112027,28095
88113368,28091
88114707,28095
88116046,28098
88117385,28098
88118724,28090
88120064,28106
88121403,28092
88122743,28098
88124082,28095
88125421,28106
88126760,28095
88128099,28100
88129438,28096
88130777,28108
88132116,28094
88133455,28104
88134794,28096
88136134,28106
88137473,28095
88138812,28102
88140152,28091
88141491,28109
88142830,28090
88144169,28110
88145508,28100
88146847,28101
88148186,28110
88149525,28100
88150865,28094
88152204,28099
88153542,28102
88154882,28099
88156221,28100
88157559,28095
88158899,28108
88160238,28099
88161576,28118
88162916,28104
88164255,28112
88165594,28105
88166933,28115
88168272,28093
88169611,28109
88170950,28102
88172289,28118
88173628,28102
88174967,28113
88176306,28095
88177645,28109
88178985,28107
88180324,28104
88181663,28112
88183003,28107
88184343,28102
88185682,28097
88187021,28111
88189625,28103
88190965,28113
88192304,28100
88193643,28114
88194982,28094
88196321,28114
88197660,28108
88198999,28118
88200338,28108
88201677,28117
88203016,28105
88204354,28106
88205694,28102
88207032,28115
88208372,28099
88209711,28107
88211050,28113
88212389,28103
88213728,28121
88215066,28102
88216406,28119
88217746,28109
88219085,28114
88220424,28109
88221763,28113
88223102,28105
88224440,28112
88225781,28111
88227120,28107
88228460,28120
88229797,28109
88231137,28116
88232475,28118
88233815,28123
88235155,28112
88236494,28121
88237833,28098
88239172,28125
88240510,28120
88241850,28118
88243189,28108
88244528,28121
88245867,28114
88247206,28123
88248545,28114
88249884,28123
88251223,28118
88252562,28119
88253901,28109
88255240,28123
88256579,28122
88257918,28115
88259256,28111
88260596,28114
88261936,28121
88263657,28112
88264997,28131
88266339,28110
88267681,28123
88269022,28122
88270362,28119
88271701,28122
88273040,28122
88274378,28109
88275718,28120
88277057,28123
88278396,28133
88279735,28115
88281074,28132
88282412,28108
88283752,28119
88285091,28120
88286430,28124
88287768,28129
88289108,28130
88290447,28107
88291786,28130
88293125,28109
88294464,28121
88295804,28108
88297143,28120
88298482,28107
88299822,28130
88301161,28115
88302500,28123
88303839,28119
88305179,28122
88306518,28113
88307858,28119
88309196,28110
88310536,28113
88311875,28113
88313214,28108
88314553,28119
88315891,28118
88317231,28111
88318570,28095
88319908,28109
88321247,28096
88322588,28116
88325192,28100
88326532,28103
88327871,28095
88329210,28112
88330548,28088
88331888,28099
88333227,28093
88334566,28099
88335906,28130
88337245,28094
88338584,28091
88339923,28099
88341263,28083
88342602,28095
88343941,28093
88345280,28093
88346619,28086
88347957,28093
88349297,28086
88350636,28076
88351974,28082
88353314,28084
88354653,28076
88355992,28085
88357331,28073
88358670,28080
88360009,28071
88361348,28092
88362687,28076
88364025,28071
88365365,28075
88366704,28085
88368043,28072
88369382,28076
88370720,28095
88372060,28077
88373399,28067
88374739,28078
88376078,28070
88377417,28081
88378756,28078
88380095,28072
88381434,28057
88382773,28076
88384112,28065
88385451,28075
88386790,28066
88388129,28076
88389468,28077
88390807,28062
88392145,28080
88393484,28065
88394824,28088
88396163,28065
88397503,28078
88398842,28060
88400181,28068
88401519,28068
88402859,28085
88404198,28092
88405536,28064
88406876,28068
88408214,28064
88409554,28059
88410893,28071
88412231,28065
88413571,28064
88414910,28056
88416249,28060
88417588,28064
88419305,28069
88420645,28057
88421985,28050
88423327,28073
88424668,28057
88426010,28068
88427349,28065
88428689,28064
88430028,28056
88431367,28068
88432707,28054
88434046,28067
88435385,28068
88436724,28068
88438062,28088
88439402,28065
88440741,28062
88442080,28063
88443419,28057
88444758,28070
88446097,28056
88447437,28069
88448776,28066
88450118,28056
88451458,28063
88452798,28052
88454137,28049
88455476,28066
88456815,28056
88458154,28064
88460760,28050
88462100,28067
88463439,28057
88464777,28059
88466117,28058
88467456,28064
88468795,28059
88470134,28066
88471472,28066
88472812,28053
88474151,28054
88475490,28062
88476828,28072
88478168,28065
88479507,28062
88480846,28060
88482185,28076
88483524,28051
88484863,28066
88486202,28059
88487541,28066
88488880,28052
88490219,28071
88491559,28071
88492899,28068
88494237,28050
88495577,28059
88496917,28066
88498256,28049
88499595,28067
88500934,28058
88502273,28063
88503611,28057
88504951,28070
88506290,28062
88507629,28060
88508967,28057
88510307,28064
88511646,28065
88512985,28064
88514324,28058
88515663,28065
88517002,28063
88518341,28056
88519679,28067
88521019,28059
88522358,28063
88523696,28054
88525036,28066
88526375,28050
88527714,28076
88529053,28062
88530391,28073
88531731,28054
88533070,28067
88534409,28061
88535748,28072
88537087,28062
88538426,28066
88539764,28066
88541103,28059
88542443,28063
88543782,28067
88545121,28075
88546460,28065
88547799,28074
88549138,28068
88550477,28072
88551816,28076
88553154,28069
88554495,28064
88555834,28073
88557173,28057
88558512,28073
88559851,28067
88561190,28070
88562528,28060
88563867,28059
88565207,28065
88566546,28073
88567885,28065
88569224,28073
88570563,28067
88571902,28063
88573240,28073
88574580,28056
88576301,28065
88577643,28063
88578984,28081
88580326,28072
88581667,28074
88583420,28057
88584760,28068
88586099,28058
88587438,28072
88588778,28071
88590117,28066
88591456,28060
88592795,28062
88594134,28059
88596739,28072
88598079,28063
88599417,28063
88600757,28076
88602096,28060
88603435,28073
88604774,28061
88606112,28074
88607452,28057
88608791,28078
88610130,28064
88611469,28068
88612808,28066
88614147,28062
88615486,28068
88616824,28058
88618164,28069
88619503,28061
88620841,28075
88622180,28063
88623520,28064
88624859,28055
88626198,28065
88627537,28065
88628876,28065
88630215,28049
88631554,28073
88632892,28058
88634232,28065
88635571,28062
88636911,28066
88638249,28055
88639589,28072
88640928,28064
88642267,28063
88643606,28066
88644945,28066
88646284,28069
88647624,28058
88648964,28081
88650303,28057
88651642,28081
88652982,28075
88654322,28077
88655660,28067
88656999,28079
88658339,28074
88659677,28063
88661017,28069
88662356,28066
88663695,28065
88665034,28063
88666373,28067
88667713,28072
88669051,28069
88670391,28064
88671729,28066
88673069,28049
88674408,28058
88675748,28068
88677087,28072
88678426,28066
88679765,28075
88681104,28064
88682443,28077
88683782,28070
88685121,28073
88686460,28072
88687799,28078
88689138,28073
88690478,28069
88691816,28076
88693156,28077
88694496,28072
88695835,28075
88697174,28068
88698513,28079
88699852,28075
88701190,28068
88702530,28078
88703869,28069
88705208,28089
88706548,28065
88707887,28072
88709226,28073
88710565,28084
88711904,28072
88713243,28083
88714582,28072
88715920,28082
88717260,28072
88718598,28069
88719938,28071
88721277,28080
88722615,28075
88723955,28070
88725294,28087
88726633,28077
88727972,28075
88729311,28080
88731915,28092
88733636,28069
88734976,28092
88736318,28082
88737657,28093
88738998,28075
88740338,28083
88741676,28091
88743016,28089
88744355,28083
88745695,28075
88747034,28074
88748372,28084
88749712,28092
88751051,28085
88752390,28091
88753729,28073
88755068,28096
88756407,28082
88757747,28095
88759087,28084
88760426,28087
88761766,28080
88763104,28092
88764444,28075
88765783,28093
88767122,28084
88768461,28087
88769800,28085
88771140,28106
88772479,28090
88773818,28091
88775156,28083
88776495,28085
88777835,28083
88779174,28079
88780513,28092
88781852,28085
88783191,28088
88784532,28071
88785871,28095
88787210,28085
88788549,28100
88789888,28085
88791227,28085
88792566,28086
88793905,28092
88795244,28098
88796583,28102
88797922,28082
88799261,28082
88800600,28090
88801938,28093
88803278,28084
88804618,28090
88805956,28100
88807295,28081
88808635,28099
88809976,28092
88811316,28090
88812654,28082
88813994,28094
88815333,28096
88816673,28090
88818012,28087
88819351,28092
88820690,28101
88822029,28096
88823368,28099
88824707,28095
88826047,28101
88827385,28090
88828725,28105
88830064,28095
88831402,28099
88832742,28085
88834082,28102
88835420,28085
88836760,28089
88838099,28092
88839437,28103
88840777,28094
88842116,28097
88843455,28087
88844794,28106
88846133,28106
88847472,28096
88848810,28104
88850150,28091
88851489,28094
88852828,28085
88854167,28110
88855506,28098
88856845,28099
88858184,28096
88859523,28102
88860861,28095
88862200,28107
88863540,28099
88864879,28107
88867485,28098
88868824,28111
88870163,28105
88871502,28109
88872841,28101
88874180,28097
88875519,28100
88876858,28089
88878197,28094
88879536,28090
88880874,28104
88882214,28094
88883552,28099
88884892,28103
88886232,28095
88887571,28098
88889288,28091
88890629,28106
88891969,28088
88893311,28100
88894652,28092
88895991,28094
88897331,28079
88898670,28096
88900009,28084
88901348,28089
88902688,28080
88904027,28100
88905365,28072
88906705,28089
88908044,28090
88909382,28088
88910721,28068
88912060,28086
88913399,28082
88914737,28082
88916077,28070
88917417,28086
88918756,28075
88920095,28085
88921434,28078
88922773,28081
88924112,28069
88925451,28094
88926790,28070
88928130,28074
88929468,28070
88930808,28065
88932147,28064
88933486,28064
88934825,28067
88936164,28065
88937504,28055
88938844,28061
88940183,28060
88941522,28053
88942860,28051
88944199,28054
88945538,28065
88946878,28050
88948217,28054
88949556,28068
88950894,28051
88952234,28062
88953573,28056
88954911,28054
88956251,28054
88957590,28060
88958929,28070
88960267,28057
88961607,28049
88962946,28063
88964284,28049
88965625,28063
88966965,28049
88968304,28066
88969642,28049
88970982,28052
88972320,28059
88973660,28058
88974999,28055
88976338,28051
88977677,28044
88979016,28048
88980355,28057
88981694,28055
88983033,28054
88984372,28047
88985711,28055
88987049,28048
88988389,28056
88989728,28049
88991066,28059
88992406,28068
88993745,28049
88995084,28046
88996422,28051
88997762,28045
88999101,28050
89000441,28050
89003044,28047
89004383,28055
89005722,28050
89007061,28057
89008400,28052
89009739,28052
89011079,28038
89012417,28053
89013757,28048
89015096,28057
89016434,28055
89017774,28058
89019112,28045
89020452,28051
89021791,28042
89023130,28059
89024468,28057
89025808,28048
89027147,28061
89028486,28047
89029825,28046
89031164,28052
89032503,28053
89033841,28048
89035182,28048
89036521,28048
89037860,28059
89039199,28042
89040537,28052
89041876,28050
89043216,28066
89044555,28053
89046275,28057
89047616,28052
89048957,28047
89050298,28058
89051639,28044
89052979,28054
89054317,28053
89055657,28059
89056996,28044
89058335,28066
89059674,28050
89061013,28064
89062352,28045
89063690,28057
89065030,28049
89066368,28056
89067708,28050
89069047,28054
89070385,28042
89071725,28056
89073064,28060
89074403,28055
89075742,28061
89077082,28056
89078420,28055
89079760,28059
89081099,28053
89082438,28061
89083777,28052
89085116,28057
89086455,28066
89087793,28054
89089132,28056
89090472,28048
89091811,28047
89093151,28063
89094490,28064
89095828,28058
89097168,28048
89098506,28045
89099846,28059
89101184,28061
89102524,28055
89103863,28054
89105202,28060
89106541,28051
89107880,28066
89109218,28057
89110557,28064
89111897,28060
89113236,28064
89114575,28053
89115914,28061
89117254,28057
89118593,28060
89119931,28056
89121270,28066
89122611,28043
89123949,28067
89125289,28053
89126628,28072
89127967,28061
89129305,28062
89130645,28058
89131984,28056
89133323,28061
89134662,28062
89136000,28066
89138605,28049
89139944,28072
89141283,28059
89142622,28064
89143960,28064
89145300,28068
89146638,28059
89147978,28065
89149316,28053
89150656,28071
89151995,28059
89153334,28071
89154673,28066
89156012,28063
89157351,28058
89158690,28072
89160029,28068
89161368,28068
89162707,28064
89164045,28061
89165385,28065
89166724,28057
89168062,28077
89169402,28059
89170741,28075
89172080,28064
89173419,28051
89174758,28070
89176097,28055
89177436,28073
89178775,28055
89180114,28069
89181453,28050
89182793,28077
89184131,28056
89185471,28068
89186810,28059
89188149,28064
89189487,28059
89190827,28062
89192165,28055
89193505,28073
89194844,28070
89196183,28067
89197522,28064
89198861,28073
89200200,28064
89201919,28067
89203261,28072
89204601,28062
89205942,28060
89207283,28059
89208623,28069
89209963,28061
89211302,28068
89212641,28056
89213981,28071
89215320,28061
89216660,28074
89217999,28050
89219339,28067
89220679,28071
89222018,28077
89223357,28057
89224696,28073
89226034,28051
89227375,28068
89228714,28063
89230053,28071
89231392,28064
89232732,28062
89234071,28062
89235410,28052
89236749,28068
89238088,28059
89239427,28062
89240766,28063
89242105,28058
89243443,28057
89244782,28064
89246121,28072
89247461,28060
89248800,28053
89250138,28060
89251478,28059
89252818,28071
89254157,28059
89255496,28060
89256835,28061
89258174,28053
89259512,28053
89260852,28060
89262191,28060
89263530,28058
89264868,28071
89266208,28061
89267547,28066
89268886,28063
89270225,28062
89271564,28054
89274169,28073
89275508,28055
89276847,28063
89278186,28056
89279525,28074
89280866,28068
89282205,28070
89283545,28060
89284885,28069
89286224,28068
89287563,28073
89288902,28070
89290241,28071
89291580,28066
89292919,28068
89294258,28084
89295597,28062
89296936,28073
89298274,28056
89299614,28072
89300953,28065
89302291,28070
89303631,28067
89304970,28084
89306309,28066
89307647,28068
89308987,28067
89310326,28077
89311665,28068
89313005,28065
89314344,28079
89315682,28054
89317022,28076
89318361,28065
89319700,28075
89321039,28071
89322379,28083
89323717,28075
89325057,28067
89326395,28077
89327735,28070
89329073,28082
89330413,28069
89331752,28071
89333092,28069
89334431,28076
89335770,28072
89337109,28071
89338448,28072
89339787,28079
89341127,28084
89342465,28067
89344219,28070
89345559,28077
89346899,28091
89348238,28072
89349577,28084
89350916,28078
89352255,28082
89353593,28078
89354933,28080
89356271,28088
89357990,28093
89359331,28077
89360671,28077
89362013,28070
89363353,28088
89364695,28072
89366034,28079
89367374,28076
89368713,28087
89370052,28083
89371391,28068
89372730,28087
89374070,28074
89375409,28084
89376748,28071
89378087,28085
89379426,28073
89380765,28092
89382103,28078
89383442,28096
89384780,28079
89386120,28082
89387459,28070
89388798,28086
89390136,28082
89391475,28094
89392815,28094
89394154,28092
89395492,28080
89396832,28098
89398172,28082
89399510,28077
89400850,28087
89402189,28090
89403529,28080
89404868,28092
89406208,28093
89407547,28081
89410150,28090
89411490,28087
89412830,28099
89414169,28088
89415508,28085
89416847,28092
89418186,28089
89419525,28090
89420864,28083
89422202,28100
89423542,28073
89424881,28099
89426220,28085
89427558,28097
89428898,28089
89430238,28093
89431577,28088
89432917,28083
89434255,28081
89435597,28095
89436937,28094
89438276,28095
89439614,28095
89440954,28088
89442292,28100
89443631,28083
89444971,28101
89446310,28089
89447649,28091
89448988,28088
89450327,28093
89451665,28088
89453005,28098
89454344,28090
89455682,28100
89457022,28088
89458361,28092
89459700,28083
89461039,28107
89462378,28093
89463717,28097
89465056,28103
89466395,28095
89467734,28086
89469073,28088
89470412,28100
89471751,28086
89473090,28094
89474430,28086
89475770,28100
89477110,28082
89478448,28098
89479788,28098
89481127,28109
89482466,28091
89483805,28100
89485143,28086
89486483,28092
89487822,28087
89489161,28089
89490500,28089
89491839,28093
89493178,28084
89494516,28104
89495856,28092
89497195,28089
89498533,28096
89499873,28078
89501212,28085
89502551,28083
89503891,28097
89505230,28085
89506569,28082
89507908,28085
89509247,28084
89510586,28075
89511925,28087
89513264,28087
89514983,28080
89516323,28082
89517664,28080
89519006,28073
89520346,28080
89521686,28064
89523025,28098
89524364,28078
89525704,28082
89527044,28068
89528382,28073
89529722,28063
89531061,28070
89532399,28077
89533739,28064
89535077,28077
89536417,28061
89537756,28066
89539096,28062
89540435,28065
89541774,28067
89543113,28057
89545718,28063
89547057,28064
89548397,28097
89549736,28076
89551075,28059
89552414,28061
89553754,28051
89555093,28061
89556433,28053
89557771,28048
89559111,28051
89560449,28051
89561789,28048
89563128,28056
89564467,28055
89565806,28059
89567145,28056
89568485,28059
89569824,28045
89571163,28059
89572502,28055
89573841,28044
89575181,28047
89576521,28060
89577860,28045
89579199,28046
89580537,28050
89581877,28054
89583216,28062
89584555,28056
89585894,28042
89587234,28057
89588573,28048
89589912,28053
89591250,28048
89592591,28050
89593930,28049
89595268,28047
89596608,28049
89597947,28051
89599286,28055
89600625,28050
89601964,28059
89603303,28035
89604642,28063
89605981,28046
89607320,28049
89608659,28036
89609998,28054
89611337,28039
89612675,28050
89614015,28043
89615353,28058
89616693,28049
89618032,28057
89619371,28037
89620710,28057
89622049,28051
89623387,28055
89624727,28048
89626066,28053
89627405,28047
89628744,28049
89630083,28056
89631422,28052
89632761,28049
89634100,28049
89635439,28050
89636778,28037
89638116,28059
89639455,28050
89640795,28055
89642134,28046
89643473,28046
89644812,28044
89646151,28050
89647490,28046
89648830,28055
89650169,28053
89651508,28047
89652847,28043
89654185,28053
89655525,28050
89656864,28042
89658203,28040
89659542,28039
89660882,28046
89662221,28031
89663560,28057
89664899,28049
89666238,28055
89667577,28047
89668916,28050
89670633,28040
89671974,28046
89673313,28051
89674655,28050
89675996,28043
89677338,28046
89678677,28048
89681281,28043
89682621,28050
89683960,28050
89685300,28050
89686639,28041
89687978,28051
89689317,28050
89690656,28054
89691995,28047
89693334,28057
89694673,28049
89696012,28064
89697352,28039
89698690,28059
89700030,28057
89701369,28053
89702708,28063
89704047,28048
89705387,28052
89706726,28047
89708065,28048
89709404,28049
89710743,28055
89712082,28046
89713421,28054
89714759,28051
89716099,28065
89717438,28054
89718777,28053
89720116,28055
89721455,28057
89722794,28061
89724133,28065
89725472,28050
89726811,28053
89728151,28058
89729490,28045
89730829,28070
89732167,28053
89733507,28054
89734846,28047
89736185,28060
89737524,28038
89738863,28056
89740202,28048
89741541,28055
89742882,28056
89744222,28061
89745561,28060
89746900,28068
89748240,28060
89749578,28061
89750918,28063
89752257,28055
89753596,28062
89754936,28037
89756275,28071
89757613,28051
89758953,28053
89760291,28042
89761631,28053
89762969,28055
89764308,28053
89765647,28049
89766987,28063
89768326,28049
89769665,28056
89771004,28057
89772343,28055
89773682,28056
89775021,28053
89776360,28057
89777698,28054
89779038,28058
89780377,28056
89781715,28062
89783055,28048
89784393,28061
89785733,28050
89787072,28055
89788411,28056
89789750,28057
89791089,28051
89792427,28044
89793767,28061
89795105,28065
89796445,28055
89797784,28047
89799123,28054
89800462,28046
89801801,28055
89803140,28046
89804478,28055
89805817,28049
89807157,28051
89808496,28049
89809836,28055
89811175,28048
89812513,28057
89813853,28057
89816457,28055
89817796,28052
89819135,28052
89820475,28049
89821814,28048
89823153,28050
89824492,28052
89825831,28060
89827170,28045
89828891,28064
89830230,28049
89831572,28060
89832912,28058
89834253,28061
89835592,28041
89836931,28055
89838269,28056
89839609,28051
89840948,28055
89842287,28060
89843627,28062
89844966,28046
89846305,28059
89847644,28041
89848983,28062
89850322,28043
89851660,28062
89853000,28055
89854339,28054
89855678,28055
89857016,28056
89858356,28048
89859695,28057
89861035,28053
89862374,28065
89863713,28049
89865051,28052
89866391,28047
89867730,28052
89869069,28054
89870408,28053
89871747,28055
89873086,28056
89874425,28052
89875764,28042
89877103,28063
89878441,28045
89879780,28056
89881120,28057
89882458,28061
89883798,28054
89885137,28047
89886476,28068
89887815,28058
89889154,28065
89890493,28055
89891832,28064
89893171,28046
89894509,28063
89895849,28043
89897187,28053
89898527,28057
89899867,28057
89901205,28051
89902545,28071
89903884,28054
89905225,28069
89906563,28069
89907903,28064
89909241,28060
89910580,28054
89911919,28060
89913259,28052
89914598,28065
89915936,28054
89917275,28057
89918613,28059
89919953,28058
89921292,28052
89922632,28064
89923971,28054
89925310,28058
89926649,28052
89927988,28054
89929326,28060
89930666,28050
89932005,28056
89933344,28055
89934683,28065
89936022,28055
89937361,28057
89938700,28048
89940039,28071
89941378,28054
89942716,28065
89944055,28049
89945395,28050
89946734,28059
89948072,28067
89949412,28063
89952015,28061
89953356,28059
89954695,28053
89956034,28061
89957373,28058
89958711,28064
89960051,28059
89961390,28060
89962729,28056
89964068,28063
89965407,28057
89966746,28060
89968085,28054
89969425,28071
89970764,28049
89972103,28064
89973441,28058
89974781,28067
89976121,28055
89977460,28060
89978799,28061
89980138,28059
89981476,28059
89982816,28067
89984534,28057
89985876,28057
89987217,28069
89988559,28064
89989899,28073
89991238,28063
89992577,28072
89993917,28064
89995256,28070
89996595,28062
89997935,28067
89999274,28061
90000612,28064
90001952,28068
90003290,28059
90004630,28067
90005969,28064
90007308,28064
90008647,28065
90009986,28070
90011326,28068
90012665,28061
90014004,28065
90015343,28067
90016682,28063
90018021,28074
90019360,28072
90020699,28059
90022038,28062
90023377,28076
90024716,28062
90026055,28069
90027394,28057
90028732,28075
90030072,28062
90031411,28072
90032749,28061
90034089,28078
90035428,28066
90036767,28069
90038106,28068
90039445,28072
90040783,28075
90042122,28072
90043461,28085
90044800,28071
90046139,28087
90047478,28075
90048817,28076
90050157,28068
90051496,28078
90052835,28076
90054174,28076
90055514,28067
90056854,28073
90058193,28071
90059532,28063
90060871,28075
90062211,28071
90063550,28070
90064890,28065
90066229,28069
90067568,28067
90068906,28078
90070246,28060
90071586,28075
90072925,28069
90074264,28075
90075602,28066
90076941,28070
90078281,28074
90079620,28079
90080959,28080
90082298,28067
90083637,28076
90084975,28062
90087580,28078
90089334,28089
90090674,28081
90092013,28084
90093353,28080
90094692,28071
90096031,28087
90097369,28067
90098709,28080
90100048,28063
90101386,28086
90102726,28077
90104065,28086
90105404,28074
90106743,28087
90108082,28074
90109421,28089
90110760,28068
90112099,28083
90113438,28083
90114777,28078
90116116,28078
90117455,28069
90118793,28082
90120132,28068
90121472,28078
90122810,28074
90124150,28072
90125490,28068
90126828,28083
90128168,28077
90129507,28079
90130846,28073
90132185,28074
90133525,28070
90134864,28065
90136203,28064
90137542,28064
90138882,28063
90140600,28056
90141941,28077
90143281,28063
90144623,28067
90145964,28057
90147304,28062
90148643,28067
90149982,28054
90151322,28047
90152661,28067
90154000,28059
90155339,28063
90156677,28049
90158017,28070
90159356,28050
90160695,28055
90162034,28047
90163373,28057
90164711,28055
90166051,28053
90167390,28042
90168729,28057
90170067,28035
90171408,28049
90172747,28050
90174085,28056
90175425,28048
90176764,28043
90178103,28046
90179441,28039
90180781,28052
90182119,28040
90183459,28044
90184798,28048
90186137,28046
90187475,28037
90188815,28041
90190154,28038
90191493,28045
90192832,28039
90194172,28036
90195512,28036
90196851,28040
90198190,28041
90199529,28049
90200869,28031
90202208,28035
90203546,28027
90204885,28032
90206224,28038
90207564,28041
90208903,28038
90210242,28032
90211581,28029
90212920,28028
90214259,28039
90215598,28030
90216938,28027
90218278,28035
90219617,28030
90220956,28044
90223560,28024
90224899,28033
90226238,28025
90227577,28034
90228917,28019
90230256,28028
90231594,28032
90232934,28023
90234273,28036
90235612,28045
90236950,28029
90238290,28021
90239629,28029
90240968,28018
90242308,28030
90243647,28026
90244986,28032
90246325,28026
90247664,28031
90249003,28028
90250342,28036
90251681,28028
90253020,28026
90254359,28029
90255698,28019
90257037,28036
90258375,28032
90259715,28035
90261053,28020
90262393,28032
90263731,28021
90265071,28038
90266410,28024
90267750,28041
90269089,28029
90270427,28030
90271767,28031
90273107,28033
90274445,28030
90275784,28031
90277123,28047
90278463,28023
90279802,28033
90281141,28023
90282480,28038
90283818,28033
90285158,28025
90286497,28028
90287836,28028
90289175,28035
90290514,28030
90291853,28036
90293192,28023
90294531,28024
90295870,28030
90297590,28030
90298932,28030
90300274,28038
90301615,28032
90302956,28030
90304296,28032
90305635,28035
90306975,28030
90308314,28037
90309653,28023
90310992,28041
90312331,28024
90313670,28041
90315009,28038
90316349,28038
90317688,28026
90319027,28027
90320366,28032
90321705,28037
90323043,28022
90324383,28023
90325721,28031
90327061,28033
90328401,28030
90329740,28034
90331078,28022
90332418,28026
90333757,28042
90335095,28026
90336435,28031
90337774,28028
90339113,28037
90340451,28032
90341790,28030
90343130,28026
90344469,28038
90345807,28035
90347147,28032
90348486,28038
90349825,28028
90351163,28033
90352503,28029
90353842,28034
90355181,28030
90356520,28037
90359125,28038
90360465,28031
90361804,28030
90363143,28028
90364482,28030
90365821,28038
90367160,28021
90368500,28040
90369840,28033
90371180,28033
90372520,28041
90373859,28028
90375200,28043
90376539,28041
90377877,28041
90379217,28036
90380556,28042
90381895,28032
90383233,28039
90384573,28035
90385912,28041
90387251,28037
90388590,28037
90389929,28037
90391268,28034
90392606,28025
90393945,28028
90395284,28035
90396624,28026
90397963,28030
90399302,28029
90400641,28038
90401980,28021
90403318,28033
90404658,28029
90405997,28033
90407336,28025
90408675,28039
90410014,28032
90411353,28037
90412692,28031
90414031,28018
90415370,28036
90416709,28025
90418048,28039
90419387,28031
90420725,28038
90422065,28036
90423404,28037
90424743,28027
90426082,28035
90427421,28035
90428760,28037
90430099,28031
90431439,28047
90432778,28026
90434117,28042
90435455,28031
90436795,28033
90438135,28033
90439474,28034
90440813,28036
90442152,28041
90443491,28037
90444830,28038
90446169,28037
90447508,28023
90448847,28038
90450186,28022
90451526,28033
90453244,28035
90454585,28038
90455925,28030
90457267,28034
90458607,28026
90459948,28025
90461287,28028
90462626,28030
90463964,28029
90465304,28040
90466644,28041
90467983,28032
90469322,28035
90470661,28028
90472000,28028
90473339,28031
90474679,28031
90476018,28032
90477356,28034
90478696,28026
90480035,28033
90481374,28032
90482713,28038
90484052,28036
90485392,28033
90486731,28026
90488070,28041
90489409,28036
90490747,28040
90492087,28037
90494692,28042
90496032,28017
90497371,28036
90498712,28042
90500051,28039
90501390,28027
90502729,28032
90504068,28036
90505407,28023
90506746,28036
90508085,28031
90509423,28049
90510762,28025
90512102,28043
90513442,28021
90514781,28041
90516120,28031
90517458,28023
90518798,28035
90520137,28032
90521476,28037
90522815,28026
90524153,28040
90525494,28033
90526834,28036
90528173,28028
90529513,28036
90530853,28033
90532194,28036
90533533,28048
90534872,28035
90536211,28046
90537550,28029
90538889,28029
90540228,28031
90541567,28040
90542906,28028
90544245,28039
90545584,28036
90546923,28048
90548263,28034
90549602,28035
90550941,28029
90552280,28049
90553619,28047
90554957,28035
90556297,28043
90557636,28028
90558975,28041
90560314,28032
90561653,28036
90562992,28033
90564331,28038
90565671,28031
90567010,28043
90568349,28042
90569687,28036
90571026,28038
90572366,28030
90573704,28042
90575043,28038
90576383,28040
90577722,28028
90579061,28047
90580399,28030
90581739,28043
90583077,28030
90584417,28051
90585756,28028
90587095,28047
90588433,28040
90589773,28047
90591112,28036
90592453,28043
90593791,28036
90595131,28043
90596470,28033
90597809,28036
90599148,28053
90600487,28045
90601825,28038
90603165,28033
90604504,28047
90605843,28033
90607182,28062
90608522,28050
90610243,28057
90611583,28037
90612924,28050
90614266,28045
90615607,28041
90616947,28044
90618286,28038
90619624,28048
90620964,28050
90622304,28050
90623643,28053
90624982,28043
90626322,28040
90627662,28062
90630265,28040
90631605,28048
90632943,28033
90634283,28046
90635623,28040
90636962,28049
90638301,28053
90639640,28045
90640979,28051
90642318,28053
90643657,28053
90644996,28045
90646335,28038
90647674,28045
90649013,28041
90650351,28048
90651691,28039
90653030,28055
90654369,28044
90655708,28045
90657047,28048
90658387,28041
90659726,28053
90661064,28055
90662404,28042
90663742,28043
90665082,28043
90666420,28049
90667760,28045
90669099,28040
90670438,28046
90671776,28053
90673116,28044
90674455,28056
90675793,28048
90677133,28049
90678472,28040
90679811,28055
90681150,28049
90682490,28050
90683829,28054
90685168,28054
90686508,28046
90687847,28057
90689187,28049
90690525,28061
90691865,28044
90693204,28055
90694543,28050
90695881,28047
90697221,28043
90698560,28045
90699899,28046
90701237,28039
90702578,28053
90703917,28042
90705255,28049
90706594,28047
90707934,28060
90709273,28048
90710611,28054
90711951,28040
90713290,28058
90714630,28042
90715969,28059
90717308,28052
90718647,28049
90719986,28057
90721325,28061
90722663,28057
90724003,28051
90725342,28060
90726681,28056
90728020,28067
90729359,28053
90730698,28057
90732037,28056
90733376,28058
90734714,28046
90736054,28062
90737393,28057
90738732,28053
90740070,28057
90741410,28054
90742749,28053
90744088,28039
90745429,28049
90746768,28053
90748107,28048
90749447,28048
90750786,28048
90752126,28054
90753465,28051
90754803,28044
90756142,28057
90757482,28047
90758821,28066
90760160,28059
90761498,28049
90762838,28058
90765443,28053
90767162,28057
90768503,28050
90769844,28061
90771186,28050
90772526,28069
90773865,28052
90775204,28068
90776543,28055
90777882,28057
90779221,28046
90780561,28057
90781900,28049
90783239,28065
90784578,28063
90785917,28065
90787256,28059
90788595,28055
90789934,28059
90791272,28054
90792612,28069
90793951,28051
90795290,28063
90796629,28047
90797968,28054
90799307,28058
90800645,28066
90801985,28059
90803324,28051
90804663,28056
90806002,28064
90807341,28053
90808680,28061
90810019,28049
90811358,28061
90812697,28059
90814036,28070
90815375,28063
90816714,28062
90818053,28068
90819392,28066
90820731,28057
90822069,28068
90823408,28056
90824748,28055
90826087,28059
90827426,28063
90828765,28056
90830104,28056
90831443,28055
90832783,28056
90834121,28050
90835461,28051
90836800,28051
90838139,28061
90839478,28052
90840817,28051
90842157,28043
90843497,28056
90844836,28036
90846176,28053
90847514,28053
90848854,28053
90850193,28046
90851532,28050
90852871,28050
90854209,28035
90855548,28056
90856888,28041
90858227,28048
90859565,28034
90860905,28053
90862244,28032
90863583,28032
90864922,28038
90866261,28041
90867600,28035
90870182,27998
90871522,28016
90872861,28004
90874200,28010
90875539,28007
90876878,28012
90878217,28012
90879556,28010
90880895,28016
90882235,28003
90883575,28007
90884914,28009
90886253,28007
90887592,27995
90888931,28005
90890270,27992
90891609,28019
90892948,28003
90894287,28009
90895626,28020
90896965,28011
90898303,27994
90899643,28010
90902249,28009
90903589,28010
90904930,28009
90906270,27997
90907609,28002
90908947,28000
90910287,28004
90911625,28015
90912964,28005
90914304,28008
90915643,27997
90916982,28007
90918321,27999
90919660,28016
90920999,28002
90922719,28002
90924060,28004
90925400,28001
90926742,27989
90928081,28005
90929422,28004
90930761,28012
90932100,28006
90933439,28010
90934778,27996
90936117,28007
90937457,28001
90938796,27999
90940134,27996
90941474,27996
90942813,28005
90944151,27997
90945491,28009
90946830,27986
90948168,28002
90949508,27998
90950847,28013
90952186,27994
90953525,28015
90954865,28015
90956204,28006
90957543,27995
90958882,28012
90960221,28001
90961560,28008
90962898,28003
90964238,28011
90965577,27988
90966916,28000
90968255,28003
90969594,28003
90970933,28011
90972272,27995
90973611,28018
90974949,27993
90976289,28008
90977628,28005
90978967,28008
90980305,27996
90981645,27998
90982984,28013
90984323,28006
90985661,28000
90987001,27997
90988340,28012
90989678,28011
90991018,27998
90992357,27999
90993696,27999
90995036,27996
90996375,28005
90997714,27995
90999054,28005
91000394,27997
91001732,28008
91003072,28001
91004411,27997
91005750,28020
91007088,28002
91008428,28012
91009767,28007
91011106,28009
91012445,28004
91013783,28003
91015123,27996
91016462,28005
91017801,27999
91019140,28014
91020479,27999
91021817,28010
91023157,28004
91024495,28017
91025835,28010
91027174,28014
91028513,28010
91029852,28003
91031190,28009
91032530,28006
91033869,28014
91035207,28014
91037812,27997
91039152,28004
91040490,28017
91041830,28012
91043169,28006
91044508,28010
91045847,28006
91047186,28011
91048525,27999
91049864,28007
91051202,28011
91052541,28016
91053881,28003
91055220,28009
91056559,28015
91057898,28013
91059238,28005
91060577,28013
91061916,27997
91063255,28006
91064594,28018
91065934,28005
91067272,28006
91068610,28005
91069950,28008
91071289,27994
91072628,27999
91073967,28002
91075306,28007
91076645,28012
91077984,28005
91079704,28010
91081044,28010
91082385,28014
91083726,27994
91085067,28005
91086407,28000
91087746,27994
91089084,28006
91090424,28012
91091763,27996
91093102,28005
91094441,28013
91095779,28012
91097119,28001
91098458,28020
91099796,27998
91101136,28015
91102475,28004
91103813,28018
91105153,27999
91106492,28000
91107831,28001
91109170,28012
91110509,27994
91111849,28005
91113188,27997
91114527,28002
91115866,28005
91117205,28006
91118545,28001
91119883,28000
91121221,28011
91122561,27988
91123900,28010
91125238,27991
91126578,28011
91127917,28000
91129256,27998
91130595,28007
91131934,27999
91133272,28008
91134612,28006
91135950,28007
91137290,27997
91138631,27996
91139971,27996
91141310,28003
91142649,28000
91143987,28010
91145327,28004
91146665,28007
91148005,28001
91149344,28002
91150684,27997
91152023,28016
91153361,27992
91154701,28002
91156041,27995
91157380,28000
91158719,28006
91160058,28008
91161397,27995
91162736,28005
91164075,28011
91165414,27993
91166753,28009
91168092,27991
91169430,28006
91170769,28003
91173374,28000
91174715,27986
91176054,28007
91177392,27996
91178732,27996
91180071,27993
91181409,28012
91182749,27989
91184088,27999
91185427,28001
91186766,28004
91188106,27998
91189445,27997
91190783,28003
91192123,27996
91193462,28005
91194800,28000
91196139,28012
91197479,28012
91198818,27996
91200157,28012
91201497,27998
91202836,28005
91204175,28002
91205514,28004
91206853,28000
91208192,28004
91209531,27997
91210870,28018
91212208,28004
91213547,28012
91214888,28003
91216227,28018
91217565,27998
91218905,28004
91220244,28005
91221583,28012
91222922,28007
91224261,28000
91225600,28002
91226940,27998
91228279,28015
91229618,28007
91230957,28001
91232297,28000
91233636,28016
91235353,27999
91236694,28015
91238034,28003
91239377,28017
91240717,28010
91242059,28002
91243398,27997
91244737,28013
91246077,28004
91247416,28002
91248756,28011
91250095,28011
91251433,28004
91252773,28006
91254112,28010
91255451,27997
91256789,28009
91258129,28006
91259467,28004
91260807,28005
91262146,28001
91263485,27997
91264824,28011
91266164,28007
91267504,28019
91268843,28004
91270183,28017
91271521,28015
91272859,28015
91274199,28007
91275538,28017
91276877,27995
91278216,28014
91279555,28003
91280894,28014
91282233,28002
91283572,27997
91284911,28017
91286250,28011
91287588,28017
91288929,28012
91290268,28015
91291607,28011
91292946,28012
91294285,28003
91295624,28010
91296963,28010
91298302,28010
91299641,28013
91300980,28014
91302319,28006
91303658,28005
91304997,28015
91306336,28014
91308941,28014
91310281,28014
91311621,28015
91312960,28006
91314301,28014
91315640,28014
91316980,28003
91318319,28003
91319658,28022
91320997,28008
91322337,28017
91323676,28001
91325015,28006
91326353,28005
91327693,28012
91329032,28017
91330370,28005
91331710,28013
91333049,28009
91334387,28016
91335727,28013
91337065,28008
91338405,28016
91339744,28010
91341083,28016
91342422,28008
91343761,28031
91345100,28014
91346439,28015
91347778,28012
91349117,28030
91350456,28018
91351795,28018
91353134,28014
91354473,28019
91355812,28016
91357152,28007
91358491,28027
91359830,28018
91361170,28024
91362509,28014
91363848,28026
91365186,28014
91366526,28031
91367865,28008
91369204,28021
91370543,28000
91371882,28025
91373221,28005
91374559,28029
91375899,28018
91377238,28025
91378577,28020
91379916,28022
91381255,28022
91382594,28025
91383933,28012
91385272,28017
91386611,28023
91387949,28014
91389289,28014
91390627,28009
91392348,28023
91393689,28011
91395030,28014
91396374,28021
91397715,28032
91399054,28017
91400393,28027
91401732,28017
91403071,28030
91404410,28016
91405749,28014
91407089,28020
91408428,28033
91409767,28022
91411106,28026
91412445,28031
91413784,28023
91415123,28037
91416461,28016
91417801,28023
91419140,28024
91420478,28014
91421818,28018
91423156,28037
91424497,28017
91425836,28028
91427175,28014
91428514,28021
91429852,28024
91431192,28014
91432533,28033
91433872,28014
91435210,28026
91436550,28017
91437889,28029
91439228,28021
91440567,28017
91441906,28023
91444511,28017
91445851,28031
91447191,28017
91448530,28020
91449869,28023
91451209,28022
91452548,28021
91453887,28025
91455225,28020
91456565,28034
91457904,28028
91459243,28025
91460582,28026
91461921,28026
91463260,28020
91464600,28014
91465940,28027
91467278,28019
91468617,28023
91469958,28020
91471298,28034
91472636,28015
91473976,28035
91475315,28022
91476654,28027
91477993,28031
91479332,28024
91480672,28030
91482011,28026
91483350,28026
91484689,28023
91486028,28026
91487367,28024
91488706,28026
91490045,28024
91491384,28029
91492722,28018
91494061,28018
91495400,28025
91496739,28033
91498078,28029
91499417,28034
91500755,28027
91502095,28018
91503433,28033
91504773,28025
91506112,28035
91507451,28025
91508790,28027
91510129,28027
91511468,28022
91512808,28035
91514147,28039
91515486,28028
91516825,28025
91518165,28041
91519504,28028
91520843,28030
91522182,28020
91523521,28039
91524861,28018
91526200,28024
91527539,28012
91528879,28036
91530217,28018
91531557,28027
91532896,28024
91534235,28021
91535573,28013
91536912,28024
91538252,28019
91539591,28026
91540930,28026
91542270,28018
91543609,28017
91544948,28013
91546287,28025
91548004,28012
91549345,28021
91550685,28003
91552028,28010
91553369,28007
91554711,28011
91556050,28008
91557389,28013
91558728,28016
91560067,28011
91561407,28004
91562746,27993
91564084,27994
91565424,28020
91566762,27992
91568102,27992
91569441,27999
91570780,27994
91572119,28001
91573457,27987
91574797,28001
91576136,27987
91577475,27990
91580081,27983
91581421,27990
91582760,27982
91584098,27976
91585852,27978
91587192,27965
91588531,27973
91589870,27968
91591209,27962
91592548,27976
91593887,27963
91595226,27982
91596565,27972
91597903,27971
91599242,27958
91600582,27977
91601921,27961
91603260,27974
91604599,27967
91605938,27978
91607276,27976
91608615,27978
91609954,27959
91611293,27980
91612632,27969
91613971,27972
91615310,27962
91616648,27967
91617988,27964
91619327,27967
91620666,27963
91622005,27966
91623345,27970
91624683,27961
91626024,27967
91627364,27951
91628703,27973
91630042,27963
91631381,27978
91632720,27969
91634059,27977
91635398,27965
91636737,27974
91638076,27963
91639415,27982
91640753,27961
91642092,27976
91643432,27960
91644771,27968
91646109,27965
91647448,27962
91648787,27970
91650128,27962
91651468,27967
91652807,27955
91654146,27967
91655485,27960
91656823,27980
91658162,27969
91659502,27963
91660841,27960
91662180,27965
91663519,27968
91664858,27951
91666197,27966
91667535,27959
91668875,27959
91670214,27957
91671553,27969
91672892,27963
91674231,27972
91675570,27964
91676909,27974
91678248,27956
91679587,27970
91680926,27967
91682266,27966
91683604,27961
91684944,27965
91686283,27958
91687622,27968
91688961,27964
91690300,27952
91691639,27968
91692978,27961
91694316,27964
91695656,27956
91696995,27971
91698334,27958
91699673,27978
91701012,27958
91702351,27979
91704070,27970
91705411,27974
91706751,27968
91708093,27968
91709433,27963
91710773,27970
91712113,27975
91713452,27969
91716054,27957
91717393,27974
91718733,27959
91720072,27977
91721411,27965
91722750,27974
91724088,27968
91725428,27965
91726767,27974
91728107,27968
91729446,27973
91730784,27966
91732124,27976
91733463,27964
91734803,27976
91736142,27956
91737481,27976
91738820,27956
91740160,27975
91741499,27965
91742837,27968
91744177,27964
91745516,27965
91746856,27969
91748194,27973
91749534,27972
91750872,27962
91752211,27965
91753550,27949
91754889,27976
91756227,27971
91757567,27972
91758906,27961
91760245,27967
91761584,27962
91762923,27975
91764262,27968
91765601,27980
91766940,27962
91768279,27971
91769617,27959
91770957,27967
91772296,27959
91773636,27971
91774976,27968
91776316,27966
91777656,27965
91778995,27964
91780334,27977
91781674,27962
91783014,27966
91784353,27963
91785692,27971
91787031,27969
91788370,27969
91789709,27966
91791048,27963
91792387,27950
91793725,27960
91795063,27971
91796403,27960
91797742,27965
91799081,27971
91800419,27960
91801759,27959
91803097,27964
91804437,27955
91805776,27961
91807115,27957
91808454,27959
91809793,27954
91811132,27958
91812470,27962
91813809,27959
91815149,27960
91816488,27962
91817827,27963
91819166,27960
91820504,27967
91821844,27960
91823183,27964
91824522,27963
91825860,27955
91827200,27955
91828539,27967
91829877,27956
91831217,27970
91832556,27966
91833895,27971
91835233,27950
91836573,27969
91837912,27958
91839251,27969
91840590,27954
91841929,27954
91843268,27959
91844607,27948
91845945,27964
91847284,27965
91848624,27960
91851229,27956
91852569,27965
91853909,27954
91855248,27961
91856587,27960
91857926,27968
91859265,27960
91860604,27966
91862314,27952
91863656,27972
91864997,27956
91866337,27973
91867678,27964
91869017,27963
91870356,27967
91871695,27964
91873034,27968
91874374,27961
91875714,27966
91877053,27959
91878391,27966
91879731,27949
91881070,27964
91882409,27952
91883749,27963
91885088,27956
91886426,27966
91887766,27952
91889106,27976
91890445,27964
91891784,27970
91893123,27953
91894462,27963
91895801,27955
91897140,27967
91898479,27962
91899817,27968
91901157,27960
91902497,27962
91903835,27974
91905175,27958
91906516,27981
91907855,27957
91909195,27967
91910533,27964
91911872,27961
91913212,27959
91914551,27975
91915890,27965
91917228,27966
91918568,27964
91919907,27969
91921246,27971
91922585,27967
91923924,27966
91925262,27952
91926602,27965
91927940,27964
91929279,27962
91930618,27966
91931958,27967
91933298,27962
91934637,27968
91935976,27969
91937314,27963
91938655,27969
91939993,27972
91941333,27971
91942672,27962
91944011,27975
91945350,27953
91946689,27969
91948028,27964
91949367,27976
91950707,27963
91952046,27974
91953385,27971
91954724,27967
91956063,27964
91957402,27971
91958741,27965
91960080,27972
91961419,27966
91962758,27974
91964097,27964
91965436,27971
91966775,27962
91968114,27969
91969453,27961
91970792,27963
91972131,27966
91973470,27969
91974809,27970
91976147,27961
91977487,27977
91978826,27965
91980165,27973
91981504,27966
91982844,27969
91984183,27965
91986787,27976
91988127,27955
91989466,27973
91990805,27962
91992143,27973
91993483,27976
91994822,27972
91996161,27962
91997500,27985
91998839,27972
92000177,27981
92001516,27976
92002856,27972
92004196,27966
92005535,27967
92006874,27976
92008213,27965
92009552,27978
92010891,27979
92012230,27966
92013569,27979
92014909,27967
92016248,27980
92017966,27973
92019308,27976
92020648,27971
92021990,27989
92023331,27972
92024670,27981
92026010,27975
92027349,27980
92028688,27965
92030027,27983
92031367,27968
92032706,27991
92034046,27970
92035386,27976
92036725,27973
92038064,27977
92039403,27968
92040742,27965
92042081,27986
92043420,27981
92044759,27975
92046098,27985
92047437,27978
92048776,27982
92050115,27975
92051455,27965
92052794,27975
92054133,27978
92055472,27981
92056810,27976
92058150,27984
92059489,27977
92060827,27987
92062167,27972
92063506,27981
92064846,27978
92066185,27981
92067524,27975
92068862,27976
92070202,27980
92071541,27972
92072880,27985
92074219,27973
92075558,27981
92076897,27968
92078236,27984
92079574,27974
92080914,27982
92082253,27977
92083592,27982
92084932,27986
92086271,27987
92087610,27981
92088949,27984
92090290,27975
92091629,27984
92092968,27971
92094308,27981
92095648,27976
92096987,27985
92098326,27989
92099665,27978
92101004,27985
92102343,27983
92103682,27989
92105022,27970
92106361,27984
92107700,27972
92109039,27981
92110378,27977
92111717,27993
92113056,27978
92114395,27983
92115733,27989
92117073,27985
92118412,27981
92119750,27990
92122354,27972
92123694,27991
92125033,27984
92126372,27989
92127711,27986
92129049,27989
92130388,27992
92131728,27993
92133066,27995
92134406,27990
92135745,27994
92137084,27985
92138422,27995
92139762,27978
92141101,27990
92142440,27979
92143778,27998
92145117,27973
92146458,27990
92147797,27988
92149136,27986
92150475,27979
92151813,27985
92153153,27992
92154492,27977
92155831,27991
92157171,27987
92158510,27993
92159848,27992
92161187,27989
92162529,27981
92163868,27991
92165208,27992
92166547,27987
92167886,28002
92169225,27992
92170563,27992
92171903,27991
92173241,27999
92174963,27981
92176303,28000
92177646,27984
92178986,27988
92180327,27986
92181667,27995
92183006,27990
92184344,27999
92185684,27988
92187023,27991
92188363,27982
92189702,27993
92191041,27986
92192380,27992
92193720,27977
92195059,28000
92196397,27990
92197737,27988
92199076,27997
92200414,27986
92201753,28011
92203093,28002
92204431,27999
92205771,27990
92207110,27996
92208449,28005
92209788,27992
92211127,28002
92212466,27998
92213806,27994
92215145,27990
92216484,27992
92217823,27996
92219162,27990
92220501,27998
92221841,27989
92223179,27995
92224518,27980
92225858,27999
92227197,27997
92228536,27999
92229875,28003
92231214,27983
92232552,28007
92233892,27991
92235231,28001
92236570,28001
92237908,27996
92239248,27996
92240586,27995
92241925,27998
92243265,28003
92244604,28011
92245944,27998
92247283,27988
92248622,27997
92249962,27983
92251302,27996
92252641,27983
92253980,27992
92255319,27983
92257923,27993
92259263,27996
92260602,27991
92261941,27993
92263280,27968
92264619,27991
92265957,27976
92267296,27993
92268636,27984
92269975,27983
92271314,27981
92272654,27982
92273993,27971
92275332,27977
92276671,27973
92278010,27972
92279350,28001
92280689,27977
92282027,27966
92283367,27977
92284706,27965
92286045,27980
92287384,27966
92288723,27964
92290062,27976
92291402,27956
92292741,27970
92294080,27962
92295419,27959
92296758,27962
92298097,27952
92299436,27963
92300775,27952
92302114,27964
92303453,27951
92304792,27953
92306131,27939
92307469,27962
92308809,27944
92310148,27947
92311487,27941
92312826,27950
92314166,27938
92315504,27951
92316844,27933
92318183,27945
92319522,27941
92320861,27946
92322200,27948
92323540,27940
92324879,27947
92326218,27938
92327556,27951
92328896,27946
92330615,27952
92331956,27942
92333297,27943
92334639,27929
92335980,27936
92337320,27943
92338659,27938
92339997,27928
92341337,27943
92342676,27939
92344017,27932
92345356,27933
92346694,27951
92348033,27931
92349373,27939
92350712,27934
92352050,27936
92353390,27933
92354728,27928
92356066,27936
92357406,27926
92358744,27932
92360083,27933
92361422,27936
92362762,27930
92364101,27931
92365440,27931
92366779,27934
92368119,27934
92369458,27933
92372041,27908
92373381,27928
92374720,27918
92376060,27920
92377398,27921
92378738,27926
92380077,27932
92381416,27921
92382755,27923
92384095,27922
92385433,27929
92386773,27921
92388112,27926
92389451,27922
92390790,27922
92392129,27914
92394734,27920
92396073,27923
92397413,27933
92398752,27922
92400090,27927
92401430,27919
92402769,27914
92404108,27919
92405447,27916
92406786,27926
92408126,27921
92409464,27919
92410804,27912
92412143,27930
92413482,27919
92414822,27923
92416160,27924
92417500,27923
92418841,27923
92420180,27915
92421519,27926
92422858,27910
92424198,27924
92425536,27915
92426875,27919
92428215,27913
92429554,27930
92430892,27923
92432231,27933
92433570,27922
92434910,27930
92436249,27905
92437588,27933
92438927,27916
92440266,27926
92441605,27915
92442944,27921
92444283,27917
92445622,27913
92446961,27931
92448300,27918
92449639,27929
92450977,27922
92452317,27934
92453656,27922
92454995,27928
92456334,27922
92457673,27932
92459012,27918
92460350,27930
92461690,27921
92463029,27927
92464368,27924
92465707,27910
92467046,27924
92468384,27933
92469724,27927
92471063,27921
92472402,27922
92473741,27919
92475079,27930
92476419,27919
92477758,27927
92479098,27913
92480437,27932
92481775,27923
92483115,27924
92484455,27930
92486171,27928
92487513,27927
92488853,27927
92490196,27919
92491537,27922
92492877,27915
92494215,27928
92495555,27916
92496894,27932
92498232,27923
92499572,27936
92500911,27922
92502250,27914
92503589,27921
92504928,27926
92506266,27922
92507606,27912
92508945,27934
92510284,27910
92511623,27929
92512962,27913
92514301,27929
92515639,27924
92516979,27928
92518318,27922
92519657,27934
92520996,27914
92522335,27928
92523674,27918
92525013,27924
92526351,27924
92527691,27921
92530295,27915
92531636,27914
92532975,27922
92534313,27912
92535653,27922
92536991,27923
92538331,27922
92539670,27910
92541010,27924
92542349,27919
92543689,27909
92545028,27934
92546368,27911
92547707,27925
92549047,27913
92550387,27926
92551726,27916
92553065,27922
92554403,27914
92555743,27919
92557083,27910
92558423,27929
92559763,27919
92561102,27915
92562441,27911
92563781,27918
92565120,27919
92566459,27912
92567798,27925
92569137,27916
92570476,27912
92571815,27919
92573154,27914
92574493,27917
92575832,27911
92577171,27907
92578510,27899
92579849,27919
92581188,27905
92582527,27923
92583866,27896
92585204,27912
92586543,27913
92587883,27924
92589222,27920
92590561,27913
92591899,27913
92593238,27918
92594578,27905
92595917,27920
92597256,27901
92598594,27924
92599934,27908
92601273,27918
92602611,27916
92603951,27922
92605290,27915
92606629,27925
92607967,27916
92609307,27917
92610646,27928
92611985,27907
92613324,27921
92614663,27912
92616002,27916
92617341,27914
92618680,27922
92620019,27910
92621357,27921
92622697,27918
92624036,27929
92625375,27919
92626714,27918
92628053,27916
92629392,27919
92630731,27925
92632069,27912
92633409,27928
92634748,27909
92636087,27922
92637425,27921
92638765,27917
92640104,27922
92641444,27932
92643164,27926
92644504,27929
92645845,27915
92647187,27927
92648527,27917
92649867,27914
92651206,27921
92652545,27927
92653884,27929
92655223,27918
92656562,27923
92657901,27925
92659240,27919
92660579,27932
92661918,27928
92663257,27917
92665861,27927
92667200,27917
92668539,27930
92669878,27916
92671216,27934
92672556,27924
92673895,27931
92675234,27920
92676573,27923
92677912,27915
92679251,27932
92680589,27928
92681927,27928
92683267,27920
92684605,27922
92685945,27934
92687284,27911
92688623,27935
92689962,27916
92691301,27931
92692640,27925
92693979,27930
92695318,27922
92696656,27927
92697996,27930
92699335,27927
92700674,27925
92702013,27919
92703352,27940
92704691,27918
92706030,27926
92707369,27925
92708708,27932
92710047,27926
92711385,27932
92712725,27933
92714064,27933
92715404,27920
92716743,27936
92718082,27917
92719421,27927
92720761,27932
92722101,27927
92723440,27928
92724779,27927
92726118,27938
92727457,27926
92728796,27932
92730134,27933
92731474,27929
92732812,27926
92734151,27931
92735491,27933
92736830,27924
92738170,27923
92739509,27923
92740848,27927
92742187,27929
92743526,27926
92744865,27918
92746204,27927
92747543,27927
92748881,27937
92750221,27925
92751560,27929
92752900,27922
92754240,27930
92755579,27918
92756918,27938
92758256,27930
92759596,27932
92760935,27922
92762274,27935
92763613,27937
92764951,27930
92766291,27928
92767630,27938
92768969,27942
92770308,27923
92771647,27943
92772986,27925
92774325,27934
92775664,27924
92777003,27947
92778342,27923
92779681,27941
92781020,27934
92782359,27938
92783698,27942
92785037,27944
92786376,27933
92787715,27941
92789054,27939
92790392,27933
92791732,27943
92793072,27926
92794411,27939
92795750,27926
92797088,27933
92798808,27933
92801414,27934
92802754,27937
92804097,27947
92805437,27933
92806776,27940
92808115,27936
92809453,27944
92810793,27939
92812132,27944
92813471,27931
92814811,27943
92816149,27933
92817489,27925
92818827,27941
92820167,27943
92821506,27943
92822845,27932
92824184,27943
92825523,27939
92826862,27946
92828201,27929
92829539,27939
92830879,27938
92832217,27951
92833557,27932
92834896,27949
92836235,27946
92837574,27940
92838913,27934
92840251,27943
92841591,27935
92842929,27933
92844268,27937
92845607,27934
92846947,27945
92848287,27934
92849626,27949
92850965,27937
92852303,27944
92853643,27927
92854982,27943
92856321,27933
92857659,27948
92858999,27945
92860338,27942
92861677,27946
92863016,27933
92864355,27944
92865693,27945
92867031,27940
92868371,27937
92869709,27946
92871050,27934
92872389,27957
92873727,27946
92875067,27946
92876407,27932
92877745,27946
92879085,27934
92880424,27947
92881763,27936
92883101,27945
92884441,27949
92885779,27943
92887119,27942
92888458,27933
92889797,27965
92891135,27942
92892475,27955
92893814,27937
92895153,27949
92896491,27933
92897831,27953
92899170,27943
92900508,27951
92901847,27947
92903187,27941
92904526,27954
92905865,27957
92907204,27934
92908543,27945
92909882,27952
92911221,27960
92912560,27942
92913899,27946
92915238,27953
92916577,27948
92917916,27954
92919255,27934
92920593,27948
92921932,27949
92923272,27958
92924611,27955
92925950,27951
92927288,27948
92928627,27941
92929967,27951
92931307,27951
92932647,27945
92933985,27953
92936591,27953
92937931,27939
92939270,27956
92940610,27951
92941949,27961
92943288,27943
92944627,27961
92945966,27941
92947305,27958
92948645,27943
92949984,27954
92951323,27959
92952662,27945
92954001,27944
92955339,27954
92957059,27965
92958398,27956
92959740,27955
92961080,27950
92962422,27963
92963762,27952
92965101,27968
92966439,27951
92967779,27949
92969119,27961
92970458,27948
92971797,27956
92973136,27952
92974475,27963
92975814,27952
92977153,27947
92978492,27952
92979830,27970
92981170,27948
92982509,27966
92983848,27950
92985187,27960
92986526,27952
92987865,27953
92989204,27957
92990542,27953
92991882,27940
92993221,27958
92994560,27957
92995899,27954
92997237,27953
92998577,27948
92999916,27945
93001255,27956
93002594,27944
93003932,27940
93005272,27949
93006611,27939
93007950,27950
93009289,27945
93010628,27946
93011967,27946
93013306,27942
93014645,27936
93015984,27940
93017323,27939
93018662,27926
93020001,27939
93021339,27925
93022679,27937
93024018,27932
93025357,27929
93026696,27934
93028036,27943
93029375,27924
93030714,27940
93032052,27916
93033393,27927
93034732,27940
93036072,27927
93037412,27920
93038751,27926
93040089,27908
93041429,27920
93042768,27925
93044107,27919
93045446,27907
93046785,27905
93048124,27925
93049463,27907
93050802,27929
93052141,27901
93053480,27907
93054818,27898
93056158,27912
93057498,27904
93058837,27905
93060177,27907
93061516,27911
93062855,27899
93064194,27909
93065533,27903
93066872,27932
93068212,27904
93069551,27887
93072157,27897
93073497,27892
93074836,27889
93076175,27887
93077514,27900
93078853,27894
93080192,27898
93081531,27896
93082870,27901
93084209,27895
93085548,27892
93086887,27890
93088226,27890
93089565,27899
93090904,27877
93092243,27891
93093581,27887
93094921,27901
93096260,27881
93097598,27899
93098937,27884
93100277,27897
93101615,27884
93102955,27901
93104294,27882
93105633,27902
93106972,27880
93108310,27889
93109650,27892
93110990,27895
93112709,27889
93114050,27878
93115389,27875
93116731,27890
93118072,27879
93119412,27885
93121165,27868
93122506,27875
93123846,27863
93125186,27872
93126525,27883
93127864,27872
93129203,27886
93130542,27878
93131881,27884
93133220,27873
93134558,27877
93135897,27865
93137237,27880
93138575,27866
93139915,27881
93141253,27874
93142593,27886
93143932,27879
93145271,27880
93146610,27883
93147949,27873
93149288,27883
93150627,27875
93151966,27883
93153305,27869
93154644,27884
93155983,27878
93157322,27871
93158661,27872
93160000,27873
93161338,27871
93162678,27877
93164017,27875
93165356,27874
93166695,27887
93168033,27869
93169374,27879
93170713,27863
93172052,27879
93173391,27878
93174731,27882
93176070,27874
93177409,27880
93178748,27863
93180087,27895
93181426,27880
93182765,27884
93184105,27873
93185445,27879
93186785,27881
93188124,27879
93189464,27879
93190803,27878
93192142,27883
93193480,27872
93194820,27886
93196159,27888
93197497,27889
93198837,27875
93200176,27889
93201515,27873
93202854,27881
93204193,27875
93205532,27877
93208136,27877
93209476,27891
93210815,27882
93212154,27882
93213493,27887
93214832,27871
93216170,27889
93217509,27896
93218849,27875
93220188,27882
93221526,27878
93222866,27885
93224204,27881
93225544,27890
93226883,27890
93228222,27885
93229562,27882
93230901,27877
93232240,27874
93233579,27878
93234918,27876
93236256,27880
93237596,27886
93238934,27872
93240274,27883
93241613,27889
93242951,27890
93244291,27873
93245631,27882
93246969,27877
93248309,27881
93249647,27868
93250987,27888
93252325,27876
93253664,27885
93255003,27880
93256343,27882
93257682,27876
93259021,27864
93260359,27879
93261699,27868
93263037,27881
93264376,27873
93265716,27879
93267055,27868
93268771,27871
93270113,27876
93271453,27878
93272795,27869
93274136,27877
93275476,27873
93276816,27884
93278155,27871
93279494,27877
93280834,27873
93282174,27867
93283513,27875
93284852,27866
93286190,27873
93287530,27870
93288870,27885
93290209,27867
93291548,27885
93292886,27862
93294226,27887
93295565,27869
93296904,27879
93298244,27863
93299583,27872
93300922,27869
93302261,27883
93303599,27878
93304939,27880
93306278,27870
93307617,27857
93308956,27871
93310295,27869
93311633,27871
93312971,27869
93314312,27874
93315651,27869
93316990,27875
93318330,27872
93319670,27868
93321009,27872
93322347,27864
93323687,27867
93325025,27875
93326365,27873
93327705,27863
93329044,27867
93330382,27870
93331722,27875
93333061,27870
93334400,27870
93335739,27867
93337077,27877
93338417,27879
93339755,27872
93341096,27870
93343701,27866
93345041,27874
93346381,27872
93347720,27876
93349059,27874
93350397,27880
93351737,27870
93353075,27884
93354415,27864
93355754,27876
93357093,27881
93358433,27858
93359771,27885
93361110,27871
93362450,27879
93363789,27874
93365128,27882
93366467,27867
93367806,27880
93369145,27875
93370484,27876
93371822,27868
93373161,27864
93374501,27886
93375840,27875
93377179,27881
93378517,27874
93379857,27879
93381196,27886
93382535,27869
93383874,27879
93385213,27867
93386552,27874
93387891,27864
93389230,27876
93390570,27872
93391909,27875
93393247,27877
93394586,27876
93395925,27870
93397264,27880
93398603,27876
93399942,27885
93401281,27871
93402620,27880
93403958,27869
93405297,27887
93406636,27873
93407976,27877
93409315,27864
93410654,27876
93411993,27876
93413332,27871
93414672,27880
93416011,27875
93417350,27889
93418688,27875
93420028,27883
93421367,27872
93422706,27884
93424045,27873
93425765,27882
93427105,27865
93428445,27886
93429788,27882
93431129,27864
93432469,27877
93433808,27886
93435147,27891
93436485,27885
93437825,27883
93439163,27874
93440503,27887
93441843,27878
93443183,27881
93444523,27881
93445863,27891
93447202,27866
93448541,27889
93449880,27884
93451219,27900
93452557,27875
93453897,27893
93455235,27876
93456575,27885
93457915,27876
93459254,27881
93460593,27880
93461931,27892
93463271,27880
93464610,27881
93465949,27894
93467288,27881
93468627,27897
93469965,27884
93471305,27889
93472644,27881
93473983,27885
93475321,27883
93476661,27900
93479266,27893
93480606,27888
93481945,27883
93483284,27887
93484623,27886
93485962,27891
93487301,27884
93488640,27881
93489979,27894
93491318,27883
93492657,27892
93493996,27886
93495335,27897
93496674,27878
93498014,27890
93499352,27894
93500692,27887
93502032,27896
93503372,27887
93504711,27897
93506051,27889
93507390,27890
93508729,27885
93510068,27885
93511407,27885
93512746,27875
93514085,27890
93515423,27890
93516763,27892
93518103,27887
93519442,27895
93520780,27888
93522119,27905
93523458,27888
93524798,27897
93526136,27898
93527476,27894
93528815,27891
93530154,27907
93531493,27900
93532832,27903
93534170,27893
93535510,27893
93536849,27906
93538187,27899
93539526,27906
93540865,27892
93542205,27900
93543544,27886
93544883,27901
93546222,27896
93547561,27904
93548900,27883
93550239,27907
93551578,27885
93552917,27898
93554256,27893
93555595,27903
93556934,27898
93558273,27898
93559614,27898
93560952,27905
93562292,27903
93563631,27898
93564970,27903
93566309,27885
93567650,27907
93568988,27894
93570328,27916
93571668,27888
93573007,27897
93574346,27909
93575686,27904
93577024,27899
93578364,27898
93579703,27894
93581421,27904
93582763,27898
93584103,27900
93585445,27901
93586786,27898
93588126,27905
93589465,27896
93590805,27904
93592144,27890
93593483,27904
93594823,27898
93596161,27906
93597502,27900
93598841,27906
93600179,27892
93601519,27903
93602857,27907
93604197,27905
93605536,27908
93606875,27897
93608213,27898
93609553,27914
93610892,27915
93612231,27894
93614836,27896
93616176,27906
93617515,27898
93618853,27899
93620192,27904
93621531,27901
93622870,27902
93624209,27900
93625547,27898
93626887,27900
93628225,27914
93629565,27913
93630904,27903
93632243,27910
93633582,27908
93634921,27904
93636260,27896
93637598,27910
93638938,27907
93640277,27908
93641616,27909
93642956,27904
93644295,27911
93645634,27909
93646973,27907
93648312,27905
93649651,27912
93650990,27918
93652329,27909
93653669,27903
93655009,27908
93656347,27909
93657687,27907
93659027,27901
93660366,27907
93661705,27918
93663044,27921
93664383,27905
93665722,27905
93667061,27915
93668400,27916
93669739,27915
93671077,27912
93672417,27915
93673756,27907
93675095,27920
93676434,27914
93677773,27917
93679112,27916
93680451,27921
93681790,27907
93683129,27920
93684468,27908
93685807,27913
93687145,27911
93688485,27924
93689824,27911
93691163,27916
93692502,27913
93693841,27915
93695181,27915
93696520,27925
93697859,27907
93699198,27913
93700537,27917
93701876,27906
93703215,27922
93704554,27912
93705893,27916
93707232,27915
93708571,27924
93709910,27909
93711248,27914
93712588,27912
93713927,27923
93715266,27907
93716605,27925
93717944,27914
93719284,27912
93720623,27918
93721962,27907
93723301,27909
93724640,27908
93725979,27913
93727318,27904
93728657,27913
93729996,27910
93731335,27911
93732675,27910
93734014,27914
93735353,27901
93736692,27902
93738412,27894
93739752,27893
93741093,27888
93742435,27891
93743777,27895
93745117,27899
93746455,27883
93747795,27912
93750400,27898
93751740,27890
93753078,27899
93754417,27885
93755756,27891
93757095,27884
93758434,27885
93759772,27884
93761112,27883
93762451,27882
93763790,27901
93765128,27886
93766468,27876
93767807,27885
93769145,27870
93770485,27885
93771823,27866
93773162,27881
93774501,27886
93775840,27869
93777179,27873
93778518,27869
93779857,27865
93781196,27878
93782535,27861
93783874,27873
93785214,27858
93786553,27859
93787892,27879
93789230,27863
93790570,27866
93791909,27854
93793248,27862
93794587,27855
93795926,27860
93797265,27846
93798604,27862
93799943,27860
93801282,27859
93802620,27860
93803960,27858
93805299,27860
93806638,27901
93807977,27852
93809316,27854
93810656,27856
93811995,27846
93813333,27851
93814672,27837
93816012,27852
93817351,27845
93818690,27848
93820029,27848
93821368,27857
93822708,27845
93824047,27838
93825386,27846
93826726,27836
93828064,27851
93829403,27829
93830743,27839
93832082,27838
93833421,27854
93834760,27842
93836099,27849
93837438,27837
93838776,27858
93840116,27846
93841455,27843
93842794,27835
93844134,27846
93845474,27836
93846813,27846
93848153,27840
93849492,27843
93850831,27835
93852170,27840
93853509,27849
93854847,27842
93856186,27847
93857525,27838
93858864,27833
93860204,27843
93861542,27845
93862882,27830
93864221,27830
93865560,27828
93866898,27838
93868239,27839
93869578,27847
93870917,27841
93872256,27829
93873594,27848
93874934,27819
93876272,27839
93877611,27831
93878950,27844
93880289,27831
93881629,27847
93882968,27836
93886401,27824
93887741,27841
93889079,27830
93890419,27833
93891758,27834
93893096,27836
93894814,27831
93896156,27825
93897496,27822
93898837,27835
93900177,27835
93901519,27830
93902858,27829
93904197,27831
93905537,27835
93906876,27836
93908215,27828
93909555,27834
93910894,27835
93912233,27828
93913572,27837
93914911,27823
93916250,27840
93917589,27834
93918927,27841
93920267,27837
93921606,27848
93922945,27840
93924284,27840
93925623,27828
93926962,27834
93928302,27837
93929640,27833
93930980,27827
93932318,27825
93933657,27845
93934997,27834
93936335,27841
93937675,27838
93939014,27847
93940352,27836
93941693,27845
93943032,27837
93944371,27842
93945711,27836
93947050,27835
93948389,27842
93949728,27836
93951066,27834
93952406,27831
93953745,27858
93955084,27831
93956423,27854
93957762,27840
93959101,27845
93960439,27840
93961779,27839
93963118,27827
93964456,27838
93965796,27830
93967136,27842
93968475,27836
93969815,27839
93971155,27831
93972494,27842
93973834,27846
93975173,27830
93976512,27832
93977850,27831
93979190,27838
93980529,27838
93981868,27846
93983207,27835
93984546,27836
93985885,27827
93987225,27834
93988564,27836
93989903,27821
93991242,27836
93992582,27830
93993920,27832
93995259,27827
93996599,27832
93997938,27828
93999276,27836
94000616,27840
94001955,27824
94003294,27824
94004633,27832
94005971,27825
94007311,27837
94008650,27824
94009988,27820
94011328,27826
94012667,27834
94014006,27829
94015345,27830
94016684,27830
94018023,27822
94019362,27831
94021965,27820
94023305,27841
94024644,27821
94025983,27840
94027323,27826
94028662,27828
94030001,27827
94031340,27818
94032679,27831
94034018,27825
94035358,27826
94036698,27830
94038036,27826
94039376,27821
94040714,27832
94042054,27824
94043393,27834
94044732,27824
94046071,27827
94047410,27817
94048750,27834
94050089,27827
94051811,27828
94053150,27825
94054491,27813
94055833,27834
94057175,27818
94058515,27827
94059853,27816
94061193,27819
94062532,27830
94063873,27822
94065212,27835
94066551,27824
94067890,27819
94069229,27831
94070568,27820
94071907,27826
94073246,27825
94074585,27828
94075924,27825
94077263,27828
94078602,27823
94079941,27833
94081279,27820
94082620,27820
94083960,27828
94085299,27824
94086638,27820
94087977,27822
94089316,27827
94090655,27819
94091994,27817
94093333,27827
94094671,27830
94096011,27813
94097351,27831
94098690,27819
94100030,27837
94101369,27817
94102709,27830
94104048,27825
94105387,27826
94106725,27819
94108065,27827
94109404,27814
94110743,27827
94112081,27837
94113421,27824
94114760,27838
94116099,27830
94117438,27842
94118778,27821
94120117,27839
94121455,27822
94122796,27835
94124134,27806
94125474,27840
94126813,27828
94128153,27841
94129491,27824
94130831,27828
94132170,27824
94133509,27834
94134848,27833
94136187,27832
94137525,27838
94138865,27824
94140204,27831
94141543,27828
94142882,27835
94144220,27835
94145559,27838
94146899,27827
94148238,27841
94149577,27836
94150916,27840
94152254,27837
94153594,27829
94154933,27830
94157537,27829
94158877,27831
94160216,27830
94161555,27837
94162894,27821
94164233,27842
94165572,27832
94166911,27849
94168251,27840
94169590,27841
94170929,27840
94172267,27833
94173607,27837
94174946,27835
94176285,27838
94177624,27839
94178964,27832
94180302,27843
94181642,27834
94182981,27843
94184320,27831
94185659,27842
94186997,27827
94188337,27840
94189676,27834
94191016,27840
94192355,27837
94193693,27852
94195033,27840
94196372,27847
94197710,27833
94199049,27844
94200389,27839
94201728,27840
94203068,27843
94204407,27848
94205745,27833
94207463,27838
94208804,27846
94210146,27841
94211489,27837
94212830,27829
94214171,27852
94215509,27829
94216849,27842
94218188,27848
94219527,27858
94220867,27842
94222206,27852
94223545,27837
94224885,27855
94226224,27836
94227563,27843
94228901,27840
94230241,27846
94231579,27844
94232918,27848
94234258,27845
94235597,27844
94236936,27845
94238275,27846
94239614,27852
94240953,27837
94242292,27858
94243631,27836
94244970,27844
94246309,27847
94247649,27844
94248989,27834
94250329,27852
94251668,27846
94253007,27855
94254346,27840
94255684,27856
94257023,27853
94258362,27864
94259702,27848
94261041,27856
94262379,27855
94263718,27849
94265057,27852
94266397,27852
94267736,27849
94269075,27846
94270413,27859
94271753,27847
94273092,27859
94274431,27851
94275770,27858
94277109,27840
94278448,27858
94279788,27855
94281126,27858
94282466,27846
94283806,27837
94285146,27846
94286485,27848
94287824,27854
94289163,27855
94290503,27856
94293108,27852
94294448,27860
94295788,27842
94297126,27858
94298466,27851
94299805,27860
94301144,27857
94302483,27846
94303821,27849
94305161,27852
94306501,27855
94307840,27838
94309179,27861
94310518,27850
94311856,27852
94313196,27844
94314535,27862
94315873,27858
94317213,27860
94318552,27855
94319891,27858
94321230,27854
94322569,27853
94323908,27856
94325247,27842
94326586,27859
94327925,27850
94329263,27856
94330602,27856
94331941,27862
94333281,27861
94334620,27859
94335958,27847
94337298,27844
94338639,27870
94339979,27850
94341318,27869
94342657,27853
94343996,27860
94345335,27844
94346673,27866
94348013,27851
94349352,27869
94350690,27853
94352030,27863
94353369,27850
94354708,27864
94356047,27855
94357386,27867
94358725,27854
94360064,27870
94361403,27862
94362742,27861
94364462,27858
94365802,27843
94367143,27879
94368486,27858
94369827,27867
94371167,27849
94372506,27858
94373845,27867
94375183,27866
94376523,27858
94377862,27866
94379201,27864
94380540,27864
94381879,27869
94383218,27862
94384558,27875
94385897,27853
94387236,27858
94388575,27866
94389914,27860
94391253,27874
94392592,27866
94393930,27852
94395270,27868
94396608,27863
94397947,27871
94399286,27858
94400626,27870
94401965,27863
94403304,27872
94404643,27862
94405982,27868
94407320,27874
94408660,27872
94409998,27857
94411337,27871
94412677,27862
94414016,27871
94415355,27871
94416694,27863
94418033,27879
94419372,27871
94420711,27872
94422051,27867
94423391,27870
94424730,27878
94426069,27859
94428673,27860
94430012,27860
94431352,27863
94432691,27869
94434030,27868
94435369,27866
94436709,27867
94438048,27859
94439387,27861
94440727,27848
94442067,27856
94443406,27858
94444745,27856
94446084,27849
94447423,27858
94448762,27848
94450101,27858
94451441,27845
94452781,27854
94454120,27848
94455459,27849
94456797,27861
94458136,27841
94459476,27855
94460815,27842
94462154,27836
94463493,27848
94464832,27837
94466174,27841
94467514,27834
94468853,27843
94470192,27833
94471531,27843
94472870,27822
94474209,27838
94475547,27820
94476887,27840
94478226,27826
94479565,27832
94480904,27814
94482243,27831
94483582,27832
94484921,27820
94486260,27832
94487599,27817
94488938,27821
94490277,27828
94491616,27826
94492955,27815
94494294,27823
94495634,27811
94496973,27818
94498312,27811
94499651,27809
94500990,27810
94502328,27805
94503668,27812
94505007,27798
94506346,27809
94507684,27807
94509024,27807
94510363,27834
94511701,27816
94513041,27793
94514380,27814
94515719,27798
94517058,27806
94518397,27799
94520115,27808
94521457,27794
94522797,27803
94524138,27811
94525480,27806
94526821,27800
94528159,27791
94529499,27802
94530837,27789
94532177,27808
94533516,27793
94534856,27807
94536194,27804
94537534,27796
94538873,27797
94540212,27803
94541551,27788
94542890,27809
94544229,27793
94545568,27801
94546907,27800
94548246,27789
94549586,27802
94550925,27791
94552264,27795
94553603,27785
94554942,27790
94556281,27791
94557621,27797
94558959,27787
94560299,27805
94561638,27788
94564243,27805
94565583,27783
94566923,27799
94568262,27786
94569601,27804
94570940,27792
94572279,27794
94573618,27801
94574957,27795
94576296,27799
94577634,27799
94578973,27796
94580313,27790
94581652,27800
94582991,27789
94584330,27783
94585668,27781
94587008,27785
94588347,27794
94589686,27794
94591025,27806
94592365,27786
94593705,27797
94595044,27788
94596383,27799
94597722,27777
94599061,27797
94600401,27795
94601740,27797
94603079,27788
94604418,27777
94605756,27798
94607096,27793
94608435,27802
94609775,27789
94611114,27786
94612453,27788
94613792,27787
94615130,27801
94616470,27791
94617809,27791
94619148,27789
94620487,27789
94621826,27784
94623164,27797
94624504,27790
94625843,27802
94627182,27783
94628521,27793
94629860,27780
94631199,27796
94632538,27789
94633876,27806
94635215,27791
94636554,27796
94637894,27792
94639233,27789
94640572,27791
94641911,27783
94643249,27791
94644588,27784
94645928,27791
94647267,27787
94648606,27792
94649945,27797
94651285,27789
94652623,27794
94653963,27781
94655302,27790
94656642,27792
94657981,27788
94659320,27780
94661073,27788
94662413,27808
94663752,27790
94665091,27781
94666430,27799
94667768,27795
94669108,27801
94670447,27795
94671786,27797
94673124,27799
94674464,27802
94676181,27790
94677523,27795
94678863,27813
94680204,27793
94681545,27789
94682887,27800
94684225,27793
94685565,27795
94686904,27797
94688243,27798
94689583,27801
94690922,27794
94692260,27796
94693600,27795
94694939,27794
94696278,27785
94697617,27791
94700220,27787
94701560,27797
94702899,27798
94704238,27798
94705577,27792
94706915,27808
94708255,27790
94709594,27793
94710933,27793
94712272,27796
94713611,27799
94714950,27786
94716289,27789
94717628,27776
94718967,27790
94720306,27788
94721645,27791
94722984,27792
94724324,27787
94725663,27805
94727002,27781
94728340,27796
94729680,27782
94731019,27790
94732358,27782
94733697,27792
94735036,27773
94736375,27798
94737714,27790
94739052,27796
94740392,27778
94741732,27796
94743070,27789
94744410,27793
94745748,27790
94747087,27793
94748428,27801
94749768,27782
94751107,27797
94752446,27778
94753785,27792
94755125,27783
94756465,27777
94757804,27790
94759143,27786
94760483,27792
94761822,27785
94763161,27781
94764499,27782
94765839,27788
94767178,27784
94768517,27789
94769855,27787
94771194,27788
94772534,27782
94773872,27791
94775212,27783
94776551,27792
94777890,27781
94779229,27798
94780568,27789
94781907,27792
94783247,27784
94784586,27778
94785924,27788
94787265,27784
94788604,27795
94789943,27791
94791282,27792
94792621,27788
94793960,27793
94795299,27782
94796637,27790
94797977,27779
94799316,27789
94800655,27789
94801993,27791
94803333,27794
94804671,27785
94806011,27786
94807350,27787
94808689,27789
94810028,27785
94811366,27788
94812706,27782
94814045,27789
94815384,27778
94816724,27788
94818063,27795
94819402,27789
94820740,27795
94822080,27785
94823419,27786
94824758,27788
94826097,27797
94827436,27789
94828775,27786
94830113,27783
94831453,27797
94833173,27780
94835778,27797
94837122,27784
94838462,27797
94839804,27782
94841143,27799
94842482,27782
94843821,27798
94845160,27793
94846500,27801
94847838,27790
94849178,27783
94850519,27803
94851859,27783
94853198,27796
94854537,27790
94855876,27794
94857216,27790
94858555,27800
94859894,27793
94861233,27803
94862572,27783
94863911,27789
94865250,27803
94866589,27802
94867927,27791
94869267,27792
94870606,27785
94871944,27795
94873284,27803
94874624,27791
94875963,27792
94877301,27789
94878642,27801
94879981,27802
94881320,27791
94882659,27804
94883998,27794
94885337,27799
94886677,27790
94888016,27802
94889355,27797
94890694,27805
94892033,27797
94893372,27802
94894711,27795
94896050,27806
94897389,27790
94898728,27804
94900067,27799
94901405,27803
94902745,27797
94904084,27805
94905424,27802
94906763,27805
94908101,27796
94909441,27798
94910781,27809
94912120,27805
94913458,27801
94914798,27800
94916137,27806
94917475,27791
94918815,27808
94920153,27798
94921493,27808
94922832,27804
94924170,27812
94925510,27811
94926849,27807
94928188,27803
94929526,27790
94930865,27813
94932205,27802
94933544,27808
94934883,27813
94936222,27814
94937561,27797
94938900,27808
94940239,27808
94941578,27806
94942917,27812
94944256,27810
94945595,27804
94946934,27812
94948273,27817
94949611,27802
94950950,27812
94952290,27810
94953628,27810
94954968,27817
94956307,27811
94957645,27814
94958984,27817
94960324,27823
94961663,27812
94963002,27798
94964341,27813
94965680,27806
94967019,27815
94968358,27806
94970964,27817
94972304,27814
94973643,27818
94974982,27815
94976321,27804
94977660,27817
94978999,27814
94980339,27812
94981680,27808
94983019,27825
94984358,27808
94985697,27816
94987036,27812
94988374,27808
94990093,27814
94991433,27804
94992773,27815
94994115,27812
94995454,27823
94996794,27815
94998132,27824
94999472,27817
95000810,27826
95002150,27811
95003490,27813
95004829,27809
95006167,27815
95007507,27814
95008846,27825
95010185,27815
95011524,27829
95012863,27810
95014201,27819
95015541,27813
95016879,27809
95018218,27819
95019558,27818
95020897,27807
95022236,27814
95023575,27816
95024914,27822
95026253,27816
95027592,27814
95028931,27822
95030269,27819
95031609,27827
95032948,27812
95034287,27809
95035626,27817
95036965,27823
95038304,27805
95039643,27821
95040981,27807
95042322,27808
95043661,27822
95044999,27813
95046338,27822
95047679,27815
95049018,27818
95050357,27822
95051696,27828
95053036,27816
95054375,27818
95055714,27810
95057053,27827
95058391,27812
95059731,27823
95061071,27817
95062411,27819
95063750,27810
95065089,27827
95066428,27818
95067769,27824
95069108,27821
95070446,27813
95071785,27823
95073124,27814
95074463,27816
95075802,27812
95077143,27823
95078482,27819
95079820,27825
95081159,27823
95082498,27822
95083838,27810
95085176,27817
95086516,27802
95087854,27813
95089194,27810
95090534,27819
95091873,27813
95093211,27810
95094551,27810
95095890,27804
95097229,27812
95098568,27795
95099907,27805
95101247,27798
95102586,27803
95103925,27800
95106530,27799
95107870,27799
95109210,27797
95110549,27794
95111888,27799
95113227,27802
95114566,27792
95115905,27794
95117244,27785
95118583,27790
95119922,27778
95121261,27797
95122600,27819
95123940,27801
95125279,27778
95126618,27784
95127957,27778
95129296,27789
95130636,27781
95131975,27785
95133315,27785
95134654,27774
95135993,27783
95137332,27771
95138670,27786
95140010,27772
95141349,27778
95142689,27775
95144027,27757
95145367,27778
95147077,27762
95148418,27763
95149759,27755
95151100,27777
95152440,27763
95153780,27775
95155119,27755
95156457,27772
95157797,27792
95159137,27767
95160476,27756
95161814,27765
95163154,27749
95164494,27767
95165833,27756
95167172,27764
95168511,27751
95169850,27752
95171189,27752
95172528,27744
95173867,27767
95175206,27759
95176544,27741
95177884,27762
95179222,27753
95180562,27751
95181900,27738
95183240,27746
95184579,27749
95185918,27749
95187257,27736
95188595,27745
95189935,27746
95191274,27748
95192614,27752
95193953,27732
95195292,27742
95196630,27745
95197970,27741
95199309,27735
95200648,27737
95201987,27743
95203326,27748
95204664,27748
95206004,27743
95207344,27739
95208683,27734
95210022,27740
95211362,27739
95212701,27738
95214039,27752
95215380,27735
95216720,27729
95218060,27754
95219398,27730
95220738,27750
95222078,27738
95223418,27747
95224757,27730
95226096,27740
95227434,27742
95228774,27747
95230113,27739
95231452,27737
95232790,27750
95234130,27737
95235469,27753
95236808,27743
95238147,27752
95239485,27730
95242089,27740
95243429,27747
95244767,27751
95246107,27736
95247446,27748
95248785,27739
95250124,27739
95251462,27736
95252802,27730
95254140,27742
95255480,27741
95256819,27742
95258158,27740
95259497,27748
95260837,27737
95262176,27747
95263516,27753
95264855,27739
95266194,27742
95267534,27737
95268873,27737
95270213,27733
95271552,27746
95272891,27738
95274230,27736
95275569,27743
95276908,27728
95278246,27740
95279586,27738
95280925,27738
95282264,27752
95283602,27743
95284942,27738
95286281,27748
95287620,27731
95288959,27742
95290298,27740
95291637,27738
95292975,27729
95294314,27735
95295654,27740
95296993,27745
95298332,27737
95299671,27742
95301010,27748
95302728,27736
95304070,27749
95305411,27742
95306753,27746
95308093,27734
95309433,27745
95310771,27733
95312111,27751
95313449,27742
95314789,27743
95316128,27738
95317468,27753
95318807,27731
95320146,27750
95321485,27751
95322824,27747
95324162,27743
95325502,27738
95326841,27745
95328180,27738
95329519,27753
95330857,27745
95332197,27749
95333535,27741
95334875,27743
95336213,27740
95337553,27754
95338892,27740
95340230,27745
95341570,27741
95342909,27750
95344248,27737
95345586,27751
95346926,27741
95348265,27750
95349604,27747
95350942,27756
95352282,27750
95353620,27754
95354959,27747
95356299,27742
95357638,27747
95358976,27740
95360317,27749
95361656,27750
95362996,27750
95364336,27742
95365675,27749
95367014,27742
95368352,27753
95369692,27734
95371031,27745
95372369,27753
95373709,27749
95375048,27728
95377652,27752
95378993,27735
95380334,27750
95381673,27744
95383012,27744
95384351,27735
95385690,27738
95387029,27748
95388368,27742
95389707,27745
95391047,27740
95392386,27744
95393725,27741
95395064,27751
95396402,27742
95397742,27753
95399081,27735
95400420,27739
95401758,27741
95403098,27748
95404436,27748
95405776,27753
95408773,27749
95410112,27736
95411452,27746
95412791,27744
95414129,27742
95415468,27739
95416808,27747
95418148,27744
95419487,27748
95420826,27759
95422164,27735
95423504,27751
95424843,27739
95426181,27745
95427521,27739
95428860,27746
95430199,27736
95431538,27756
95432877,27738
95434216,27750
95435555,27743
95436894,27741
95438232,27745
95439571,27750
95440911,27751
95442250,27743
95443589,27756
95444928,27739
95446267,27746
95447606,27746
95448945,27749
95450283,27734
95451622,27754
95452962,27738
95454300,27769
95455640,27740
95456979,27754
95458699,27739
95460039,27756
95461380,27741
95462722,27750
95464064,27743
95465404,27754
95466743,27751
95468083,27750
95469422,27752
95470761,27750
95472100,27750
95473440,27753
95474779,27749
95476117,27747
95477457,27752
95478796,27753
95480135,27755
95481474,27745
95482813,27755
95484151,27743
95485491,27765
95486829,27751
95488169,27760
95489508,27752
95490848,27758
95492188,27746
95493527,27758
95494866,27763
95496205,27760
95497544,27760
95498883,27747
95500222,27757
95501561,27745
95502900,27768
95504239,27752
95505579,27753
95506917,27754
95508256,27762
95509596,27750
95510935,27761
95512274,27746
95514878,27769
95516218,27750
95517557,27772
95518896,27756
95520236,27762
95521575,27762
95522914,27765
95524252,27771
95525592,27770
95526930,27760
95528270,27760
95529609,27762
95530949,27765
95532288,27759
95533627,27761
95534966,27757
95536306,27768
95537644,27761
95538983,27770
95540322,27765
95541661,27777
95543000,27759
95544339,27766
95545678,27765
95547018,27764
95548357,27758
95549696,27753
95551035,27774
95552374,27770
95553712,27754
95555052,27757
95556391,27769
95557731,27753
95559070,27769
95560409,27762
95561749,27767
95563088,27777
95564427,27773
95565765,27758
95567105,27763
95568444,27763
95569783,27766
95571121,27769
95572460,27771
95573800,27776
95575139,27767
95576478,27772
95577817,27769
95579157,27772
95580497,27768
95581836,27780
95583175,27765
95584514,27771
95585853,27768
95587192,27778
95588531,27775
95589870,27781
95591208,27781
95592548,27770
95593888,27777
95595227,27770
95596566,27781
95597905,27767
95599244,27778
95600583,27776
95601922,27772
95603261,27782
95604600,27787
95605939,27775
95607278,27777
95608617,27777
95609956,27778
95611295,27770
95612633,27769
95614354,27781
95615696,27771
95617036,27780
95618378,27772
95619719,27790
95621060,27777
95622400,27796
95623739,27775
95625078,27787
95626417,27779
95627756,27793
95629096,27776
95630435,27786
95631774,27781
95633113,27788
95634452,27778
95635791,27792
95637129,27779
95638469,27781
95639808,27784
95641147,27790
95642486,27785
95643826,27791
95645165,27785
95646504,27792
95647844,27791
95650447,27787
95651787,27779
95653126,27787
95654465,27792
95655803,27786
95657143,27787
95658482,27796
95659822,27785
95661160,27795
95662500,27788
95663838,27799
95665177,27786
95666517,27797
95667856,27790
95669195,27791
95670534,27783
95671873,27790
95673212,27794
95674551,27786
95675890,27799
95677228,27792
95678568,27791
95679907,27783
95681246,27797
95682584,27778
95683924,27798
95685263,27796
95686602,27791
95687942,27790
95689281,27785
95690620,27787
95691960,27789
95693300,27788
95694638,27780
95695978,27788
95697317,27783
95698655,27792
95699994,27785
95701334,27790
95702673,27775
95704012,27791
95705351,27774
95706690,27780
95708028,27771
95709368,27774
95710707,27766
95712046,27773
95713385,27772
95714724,27772
95716063,27770
95717402,27765
95718741,27775
95720080,27759
95721418,27764
95722758,27769
95724097,27766
95725436,27759
95726775,27758
95728114,27762
95729452,27764
95730792,27756
95732131,27762
95733470,27753
95734809,27754
95736148,27746
95737487,27741
95738826,27755
95740165,27783
95741505,27746
95742844,27733
95744183,27744
95745522,27734
95746861,27738
95748200,27731
95749539,27745
95750878,27725
95752217,27739
95753556,27732
95754895,27735
95756233,27723
95757573,27718
95758912,27733
95760251,27720
95761589,27735
95762929,27724
95764268,27729
95765607,27721
95766946,27724
95768285,27713
95769624,27732
95771344,27714
95772684,27716
95774025,27707
95775367,27727
95776709,27703
95778049,27723
95779388,27697
95780727,27718
95782066,27710
95783405,27705
95786009,27707
95787349,27716
95788689,27717
95790028,27712
95791367,27713
95792706,27707
95794045,27701
95795384,27709
95796724,27699
95798063,27732
95799402,27709
95800741,27687
95802081,27709
95803421,27702
95804761,27705
95806099,27704
95807439,27713
95808778,27704
95810117,27700
95811456,27702
95812794,27694
95814134,27716
95815472,27701
95816812,27703
95818151,27693
95819490,27703
95820830,27707
95822169,27706
95823508,27704
95824847,27703
95826186,27699
95827526,27696
95828865,27702
95830204,27696
95831542,27696
95832882,27712
95834221,27701
95835560,27693
95836899,27705
95838238,27702
95839576,27705
95840916,27701
95842256,27709
95843596,27697
95844935,27699
95846274,27694
95847613,27708
95848953,27691
95850292,27688
95851631,27706
95852970,27695
95854309,27713
95855648,27700
95856987,27706
95858326,27695
95859666,27700
95861005,27700
95862344,27711
95863682,27696
95865022,27701
95866361,27692
95867700,27711
95869038,27705
95870378,27699
95871717,27699
95873055,27690
95874397,27707
95875736,27694
95877075,27699
95878414,27698
95879752,27700
95881093,27700
95882432,27685
95883771,27691
95885110,27695
95886449,27700
95887788,27693
95889127,27700
95890466,27692
95891805,27699
95893143,27689
95894482,27705
95895821,27695
95897160,27704
95898500,27700
95899839,27699
95901178,27692
95902517,27705
95903855,27683
95905194,27701
95906533,27690
95907873,27692
95909211,27705
95910551,27696
95911890,27705
95913229,27702
95914568,27701
95915907,27691
95917246,27700
95918586,27687
95921191,27694
95922531,27693
95923870,27695
95925209,27691
95926549,27694
95928267,27695
95929609,27703
95930949,27693
95932291,27693
95933632,27697
95934972,27701
95936311,27693
95937650,27693
95938990,27702
95940329,27691
95941669,27706
95943008,27690
95944347,27701
95945686,27712
95947025,27707
95948364,27696
95949703,27702
95951042,27695
95952380,27701
95953719,27702
95955059,27697
95956398,27707
95957737,27702
95959077,27691
95960416,27694
95961756,27697
95963095,27699
95964434,27708
95965772,27692
95967112,27699
95968451,27694
95969789,27700
95971128,27698
95972468,27697
95973807,27696
95975146,27689
95976485,27705
95977824,27694
95979162,27706
95980502,27686
95981841,27704
95983180,27695
95984519,27710
95985858,27696
95987198,27711
95988536,27693
95989875,27703
95991215,27696
95992553,27703
95993893,27693
95995232,27705
95996571,27702
95997910,27696
95999249,27697
96000588,27687
96001928,27700
96003267,27696
96004607,27707
96005947,27691
96007286,27700
96008624,27703
96009964,27703
96011303,27696
96012642,27701
96013982,27693
96015321,27702
96016660,27695
96017999,27700
96019338,27695
96020678,27693
96022017,27705
96023356,27686
96024695,27704
96026034,27704
96027373,27698
96028712,27694
96030052,27700
96031391,27696
96032730,27702
96034069,27689
96035407,27701
96036747,27692
96038085,27702
96039425,27705
96040765,27695
96042104,27706
96043443,27689
96044782,27703
96046121,27698
96047459,27698
96048798,27693
96050138,27710
96051477,27687
96052817,27703
96054157,27697
96056762,27703
96058101,27694
96059440,27703
96060779,27690
96062117,27706
96063457,27694
96064796,27699
96066136,27695
96067475,27690
96068815,27703
96070154,27692
96071493,27701
96072832,27694
96074171,27698
96075509,27704
96076849,27704
96078188,27699
96079527,27702
96080866,27706
96082205,27696
96083544,27691
96085253,27697
96086594,27705
96087936,27699
96089276,27703
96090618,27698
96091957,27702
96093297,27704
96094636,27711
96095975,27702
96097316,27706
96098655,27701
96099994,27695
96101333,27708
96102672,27695
96104011,27697
96105349,27699
96106689,27705
96108028,27697
96109367,27700
96110706,27703
96112045,27701
96113384,27709
96114723,27700
96116062,27704
96117400,27703
96118740,27712
96120078,27692
96121418,27700
96122757,27707
96124095,27698
96125434,27716
96126773,27703
96128113,27712
96129453,27711
96130792,27705
96132130,27695
96133470,27707
96134809,27716
96136148,27702
96137487,27717
96138826,27702
96140164,27719
96141504,27700
96142843,27717
96144182,27710
96145521,27724
96146860,27704
96148199,27715
96149538,27705
96150876,27711
96152216,27709
96153555,27715
96154894,27709
96156234,27715
96157573,27715
96158911,27714
96160251,27724
96161591,27721
96162929,27724
96164269,27719
96165607,27718
96166947,27714
96168286,27723
96169625,27715
96170964,27722
96172303,27724
96173641,27720
96174981,27716
96176734,27720
96178074,27731
96179412,27733
96180752,27729
96182091,27729
96183430,27718
96184769,27731
96186108,27730
96187447,27738
96188786,27727
96190125,27737
96192729,27726
96194069,27733
96195408,27730
96196747,27744
96198086,27726
96199425,27721
96200764,27730
96202103,27727
96203442,27736
96204781,27732
96206120,27739
96207458,27731
96208796,27753
96210136,27731
96211475,27737
96212813,27738
96214152,27743
96215492,27739
96216832,27740
96218171,27746
96219509,27734
96220849,27739
96222188,27735
96223526,27753
96224866,27740
96226205,27751
96227544,27738
96228883,27744
96230222,27732
96231560,27746
96232900,27727
96234238,27754
96235577,27737
96236915,27753
96238255,27739
96239594,27755
96241312,27743
96242653,27744
96243995,27739
96245335,27736
96246676,27736
96248016,27754
96249354,27744
96250694,27749
96252032,27749
96253373,27747
96254713,27744
96256053,27738
96257391,27749
96258731,27733
96260070,27753
96261408,27750
96262748,27756
96264086,27750
96265426,27756
96266764,27747
96268104,27758
96269442,27753
96270782,27764
96272120,27747
96273460,27739
96274799,27756
96276138,27751
96277477,27756
96278816,27755
96280155,27754
96281494,27751
96282833,27755
96284172,27748
96285510,27766
96286849,27746
96288188,27757
96289527,27736
96290866,27755
96292206,27748
96293546,27758
96294885,27737
96296224,27754
96297563,27737
96298902,27755
96300241,27739
96301579,27745
96302918,27751
96304259,27752
96305598,27747
96306937,27743
96308276,27748
96309615,27736
96310954,27735
96312294,27728
96313633,27745
96314972,27737
96316311,27732
96317651,27732
96318991,27724
96320329,27732
96321668,27755
96323007,27735
96324346,27734
96325684,27732
96328289,27723
96329629,27718
96330968,27720
96332307,27716
96333646,27712
96334985,27712
96336324,27719
96337662,27715
96339002,27722
96340340,27712
96341679,27720
96343019,27700
96344358,27710
96345697,27711
96347036,27711
96348374,27703
96349713,27707
96351052,27713
96352391,27705
96353730,27691
96355069,27691
96356407,27695
96357747,27745
96359086,27698
96360425,27703
96361764,27691
96363103,27694
96364442,27696
96365781,27696
96367120,27699
96368459,27683
96369798,27690
96371137,27681
96372477,27684
96373815,27681
96375156,27680
96376494,27681
96377834,27677
96379173,27681
96380512,27686
96381851,27686
96383190,27679
96384528,27675
96385868,27675
96387207,27684
96388546,27671
96389885,27683
96391224,27703
96392563,27681
96393902,27667
96395241,27678
96396958,27661
96398300,27674
96399640,27663
96400982,27679
96402323,27676
96403664,27676
96405004,27679
96406343,27679
96407682,27669
96409021,27670
96410360,27680
96411699,27672
96413038,27664
96414377,27679
96415716,27669
96417055,27677
96418394,27675
96419733,27673
96421072,27674
96422411,27678
96423750,27679
96425089,27661
96426428,27667
96427766,27660
96429106,27669
96430444,27661
96431784,27656
96433123,27664
96434462,27669
96435801,27671
96437139,27677
96438479,27662
96439818,27677
96441156,27667
96442495,27664
96443835,27669
96445174,27677
96446513,27667
96447852,27679
96449191,27671
96450529,27669
96451869,27662
96453207,27658
96454547,27672
96455886,27660
96457225,27670
96458564,27657
96459903,27662
96461242,27664
96463845,27670
96465185,27663
96466524,27661
96467863,27660
96469203,27665
96470543,27672
96471882,27670
96473220,27672
96474559,27663
96475900,27667
96477238,27665
96478578,27675
96479917,27658
96481256,27661
96482595,27662
96483933,27677
96485273,27668
96486612,27671
96487950,27670
96489290,27671
96490630,27669
96491969,27668
96493307,27676
96494647,27664
96495985,27672
96497324,27664
96498664,27670
96500003,27671
96501342,27663
96502681,27668
96504020,27672
96505359,27668
96506698,27661
96508037,27678
96509375,27667
96510715,27671
96512054,27663
96513392,27669
96514732,27666
96516071,27668
96517411,27663
96518749,27667
96520088,27665
96521427,27677
96522766,27655
96524105,27676
96525444,27666
96526783,27677
96528122,27671
96529462,27666
96530801,27670
96532139,27671
96533479,27668
96534819,27664
96536158,27671
96537497,27666
96538836,27671
96540176,27669
96541515,27680
96542854,27670
96544193,27682
96545532,27669
96546871,27685
96548210,27682
96549549,27680
96550887,27678
96552227,27686
96553947,27668
96555287,27686
96556628,27678
96557970,27683
96559312,27673
96560652,27685
96561991,27683
96563329,27675
96564669,27688
96566009,27679
96567348,27688
96568688,27672
96570027,27681
96571366,27678
96572704,27688
96574044,27675
96575383,27679
96576722,27677
96578061,27682
96579400,27680
96580739,27687
96582078,27682
96583417,27688
96584756,27681
96586096,27682
96587434,27673
96588773,27687
96590113,27679
96591452,27684
96592791,27680
96594130,27677
96595469,27693
96596807,27681
96599411,27697
96600752,27681
96602091,27693
96603430,27675
96604769,27684
96606108,27680
96607447,27690
96608786,27688
96610125,27688
96611464,27676
96612803,27685
96614142,27681
96615481,27689
96616820,27674
96618159,27685
96619498,27669
96620837,27688
96622176,27683
96623515,27690
96624854,27690
96626195,27686
96627534,27680
96628873,27678
96630212,27682
96631552,27690
96632891,27679
96634231,27683
96635570,27677
96636909,27685
96638248,27673
96639587,27693
96640926,27682
96642266,27682
96643604,27681
96644943,27692
96646283,27674
96647622,27686
96648961,27680
96650300,27698
96651639,27685
96652978,27679
96654316,27688
96655656,27683
96656995,27699
96658334,27700
96659673,27687
96661012,27683
96662351,27696
96663689,27678
96665029,27699
96666368,27692
96667707,27679
96669046,27676
96670385,27691
96671724,27678
96673063,27698
96674401,27688
96675740,27692
96677080,27683
96678419,27695
96679758,27685
96681097,27693
96682436,27685
96683775,27695
96685114,27685
96686453,27693
96687792,27692
96689130,27680
96690470,27696
96691809,27688
96693148,27697
96694487,27691
96695826,27694
96697164,27692
96698504,27701
96699843,27697
96701181,27702
96702520,27692
96703859,27689
96705197,27697
96706537,27701
96707875,27692
96709594,27692
96710935,27698
96712275,27703
96713617,27698
96714958,27703
96716299,27698
96717639,27691
96718978,27698
96720317,27693
96721656,27701
96722996,27703
96724335,27691
96725674,27706
96727013,27694
96728352,27704
96729690,27699
96731029,27709
96732368,27706
96734972,27709
96736311,27700
96737650,27707
96738989,27695
96740329,27702
96741668,27716
96743007,27708
96744345,27713
96745684,27704
96747024,27702
96748363,27719
96749702,27703
96751041,27718
96752379,27704
96753719,27725
96755058,27714
96756397,27717
96757736,27706
96759075,27712
96760414,27713
96761753,27710
96763092,27710
96764431,27720
96765770,27711
96767109,27713
96768448,27716
96769787,27711
96771126,27718
96772465,27710
96773804,27724
96775142,27716
96776482,27727
96777820,27722
96779160,27718
96780498,27721
96781839,27713
96783178,27726
96784517,27712
96785857,27729
96787197,27715
96788536,27721
96789875,27724
96791214,27727
96792553,27711
96793892,27731
96795231,27729
96796570,27720
96797909,27719
96799247,27716
96800586,27720
96801925,27712
96803264,27725
96804603,27728
96805942,27733
96807282,27716
96808621,27725
96809960,27730
96811299,27736
96812637,27729
96813977,27724
96815316,27725
96816654,27734
96817994,27727
96819333,27720
96820672,27742
96822011,27722
96823350,27744
96824689,27735
96826027,27735
96827367,27722
96828706,27735
96830045,27717
96831383,27730
96832723,27735
96834062,27742
96835400,27736
96836740,27734
96838079,27729
96839417,27738
96840756,27739
96842096,27734
96843435,27750
96844774,27731
96846113,27749
96847451,27742
96848791,27741
96850130,27730
96851469,27730
96852808,27738
96854147,27731
96855486,27744
96856825,27742
96858164,27733
96859503,27734
96860842,27753
96862181,27735
96863521,27745
96864860,27745
96866580,27755
96867920,27735
96870528,27751
96871869,27742
96873210,27747
96874550,27738
96875890,27761
96877229,27744
96878569,27758
96879908,27747
96881248,27749
96882587,27759
96883926,27751
96885265,27743
96886604,27746
96887942,27762
96889282,27745
96890621,27759
96891960,27752
96893299,27763
96894638,27753
96895977,27766
96897316,27755
96898656,27768
96899995,27759
96901334,27742
96902673,27754
96904012,27759
96905350,27764
96906690,27758
96908029,27757
96909368,27764
96910706,27764
96912046,27757
96913384,27767
96914724,27754
96916063,27767
96917402,27772
96918741,27761
96920080,27759
96921419,27765
96922757,27772
96924097,27762
96925436,27765
96928018,27743
96929358,27751
96930697,27747
96932036,27748
96933376,27732
96934715,27751
96936054,27757
96937392,27736
96938733,27738
96940072,27731
96941411,27745
96942751,27736
96944091,27747
96945430,27734
96946768,27746
96948108,27730
96949446,27732
96950785,27737
96952125,27726
96953464,27758
96954803,27738
96956142,27722
96957481,27738
96958820,27727
96960160,27729
96961500,27730
96962839,27730
96964178,27723
96965516,27714
96966856,27723
96968195,27723
96969534,27714
96970873,27717
96972212,27723
96973551,27712
96974890,27726
96976228,27711
96977567,27730
96978906,27712
96980245,27726
96981584,27712
96982923,27723
96984262,27714
96985601,27715
96986940,27698
96988278,27713
96989618,27703
96990957,27715
96992296,27711
96993634,27706
96994974,27715
96996313,27701
96997652,27713
96998991,27706
97000329,27706
97001669,27706
97003008,27696
97004347,27704
97006952,27700
97008292,27699
97009631,27700
97010970,27704
97012309,27704
97013648,27705
97014987,27696
97016326,27700
97017665,27714
97019004,27704
97020344,27704
97021682,27730
97023402,27694
97024743,27701
97026086,27698
97027427,27707
97028768,27703
97030108,27701
97031448,27696
97032787,27703
97034126,27701
97035466,27699
97036806,27701
97038145,27687
97039484,27704
97040823,27689
97042162,27712
97043502,27688
97044841,27707
97046179,27696
97047519,27703
97048857,27694
97050197,27714
97051536,27695
97052876,27711
97054215,27703
97055553,27691
97056893,27699
97058231,27689
97059572,27709
97060911,27693
97062250,27705
97063589,27701
97064928,27707
97066267,27697
97067606,27705
97068945,27701
97070284,27702
97071623,27702
97072962,27706
97074300,27696
97075640,27710
97076979,27697
97078318,27699
97079656,27707
97080995,27708
97082335,27705
97083674,27706
97085013,27712
97086352,27708
97087691,27713
97089030,27693
97090368,27705
97091708,27691
97093047,27714
97094386,27700
97095726,27697
97097066,27701
97098405,27704
97099746,27701
97101084,27699
97102424,27699
97103763,27699
97105102,27707
97106440,27698
97107780,27698
97109119,27691
97110458,27703
97111797,27701
97113136,27706
97114475,27697
97115814,27704
97117153,27704
97118492,27711
97119831,27705
97121170,27714
97122508,27708
97123848,27700
97125187,27707
97126526,27704
97127865,27703
97129204,27712
97130542,27708
97131883,27695
97133222,27706
97134561,27714
97135900,27714
97137239,27719
97138578,27719
97139917,27699
97142522,27709
97143862,27706
97145202,27711
97146541,27699
97147880,27721
97149219,27707
97150558,27714
97151897,27708
97153235,27719
97154576,27711
97155915,27716
97157254,27722
97158593,27714
97159932,27716
97161272,27714
97162611,27722
97163951,27719
97165290,27719
97166629,27718
97167969,27722
97169308,27718
97170647,27719
97171986,27724
97173325,27718
97174663,27731
97176002,27706
97177341,27726
97179061,27717
97180402,27720
97181743,27719
97183085,27739
97184425,27724
97185767,27729
97187106,27715
97188445,27724
97189784,27724
97191123,27725
97192463,27724
97193802,27718
97195141,27726
97196479,27739
97197819,27730
97199158,27724
97200497,27728
97201837,27721
97203176,27707
97204515,27714
97205854,27722
97207194,27723
97208533,27732
97209872,27726
97211211,27723
97212550,27727
97213889,27736
97215227,27724
97216566,27735
97217906,27722
97219245,27729
97220584,27726
97221923,27728
97223262,27721
97224600,27730
97225940,27729
97227279,27726
97228618,27730
97229957,27729
97231296,27734
97232636,27726
97233975,27728
97235313,27723
97236652,27733
97237992,27726
97239331,27734
97240670,27732
97242009,27732
97243348,27726
97244687,27731
97246026,27732
97247364,27727
97248704,27716
97250042,27735
97251383,27731
97252722,27735
97254061,27733
97255401,27729
97256742,27731
97258081,27723
97259420,27732
97260759,27722
97262098,27737
97263436,27729
97264776,27735
97266115,27729
97267455,27735
97268794,27733
97270134,27741
97271473,27737
97272813,27729
97274152,27738
97275491,27742
97278095,27731
97279435,27733
97280774,27740
97282114,27736
97283454,27740
97284794,27744
97286132,27745
97287472,27748
97288811,27741
97290149,27741
97291489,27735
97292828,27747
97294166,27735
97295505,27747
97296845,27737
97298184,27760
97299523,27748
97300862,27746
97302200,27738
97303540,27741
97304878,27740
97306217,27737
97307556,27743
97308896,27746
97310235,27743
97311574,27739
97312913,27753
97314251,27742
97315591,27745
97316931,27743
97318270,27744
97319609,27754
97320948,27752
97322286,27753
97323626,27740
97324965,27750
97326304,27746
97327643,27754
97328982,27741
97330321,27751
97331660,27747
97332999,27758
97334338,27742
97336058,27758
97337399,27758
97338740,27770
97340081,27746
97341422,27760
97342762,27753
97344100,27762
97345440,27761
97346779,27754
97348119,27763
97349458,27753
97350797,27769
97352136,27760
97353475,27774
97354814,27753
97356153,27766
97357491,27767
97358830,27757
97360170,27763
97361509,27771
97362848,27754
97364187,27770
97365525,27756
97366865,27770
97368205,27774
97369545,27771
97370884,27769
97372223,27759
97373562,27755
97374901,27763
97376240,27772
97377579,27768
97378918,27771
97380257,27764
97381596,27764
97382935,27767
97384273,27778
97385613,27781
97386952,27783
97388290,27770
97389630,27768
97390969,27783
97392308,27779
97393647,27769
97394986,27760
97396326,27779
97397665,27774
97399005,27780
97400343,27774
97401683,27787
97403022,27770
97404361,27775
97405699,27774
97407039,27784
97408378,27789
97409716,27782
97411056,27781
97413661,27772
97415001,27784
97416340,27773
97417679,27781
97419018,27779
97420357,27785
97421696,27780
97423035,27791
97424374,27781
97425712,27793
97427052,27778
97428391,27787
97429730,27782
97431069,27796
97432408,27781
97433747,27796
97435086,27779
97436424,27795
97437763,27786
97439103,27789
97440442,27805
97441780,27790
97443119,27800
97444459,27801
97445798,27798
97447137,27805
97448476,27787
97449815,27799
97451154,27799
97452492,27799
97453831,27803
97455171,27811
97456510,27791
97457848,27808
97459187,27805
97460527,27807
97461866,27792
97463205,27785
97464544,27806
97465883,27804
97467222,27808
97468560,27809
97469900,27800
97471239,27800
97472579,27811
97473918,27800
97475257,27798
97476596,27811
97477935,27810
97479274,27812
97480613,27806
97481952,27806
97483290,27795
97484630,27808
97485969,27802
97487308,27813
97488647,27801
97489986,27818
97491703,27803
97493045,27816
97494385,27807
97495726,27806
97497067,27803
97498408,27815
97499748,27802
97501087,27812
97502425,27806
97503765,27821
97505105,27811
97506444,27823
97507783,27819
97509122,27813
97510461,27826
97511800,27811
97513139,27823
97514478,27815
97515816,27825
97517156,27805
97518495,27815
97519834,27811
97521173,27818
97522512,27806
97523852,27813
97525191,27807
97526530,27822
97527870,27816
97529209,27822
97530548,27819
97531886,27822
97533226,27823
97534565,27821
97535903,27818
97537243,27821
97538582,27832
97539922,27818
97541262,27830
97542601,27821
97543940,27820
97545279,27816
97546618,27832
97549221,27820
97550562,27821
97551901,27822
97553239,27830
97554578,27814
97555918,27819
97557257,27817
97558595,27820
97559934,27814
97561274,27821
97562613,27826
97563953,27815
97565293,27822
97566631,27819
97567971,27815
97569311,27813
97570650,27814
97571988,27811
97573328,27810
97574667,27825
97576006,27815
97577345,27811
97578684,27804
97580023,27823
97581362,27805
97582701,27810
97584040,27798
97585380,27800
97586719,27812
97588058,27820
97589397,27812
97590735,27802
97592075,27802
97593413,27800
97594752,27811
97596092,27796
97597431,27799
97598770,27798
97600110,27801
97601449,27792
97602787,27805
97604126,27798
97605465,27796
97606805,27799
97608143,27789
97609482,27805
97610822,27796
97612162,27795
97613501,27789
97614840,27794
97616179,27787
97617518,27801
97618857,27781
97620196,27796
97621534,27777
97622874,27795
97624212,27780
97625552,27793
97626890,27783
97628230,27786
97629569,27793
97630908,27781
97632247,27783
97633586,27789
97634925,27794
97636264,27777
97637602,27780
97638942,27781
97640281,27780
97641620,27778
97642958,27770
97644298,27783
97645637,27774
97646975,27779
97648696,27762
97650036,27780
97651377,27778
97652719,27778
97654060,27796
97655399,27779
97656738,27768
97658077,27778
97659416,27772
97660755,27786
97662094,27771
97663433,27781
97664772,27777
97666112,27769
97667452,27777
97668791,27781
97670129,27779
97671469,27767
97672807,27782
97674147,27762
97675486,27781
97676824,27780
97678163,27784
97679503,27766
97680841,27782
97682180,27764
97686030,27787
97687371,27778
97688711,27779
97690051,27789
97691390,27781
97692729,27784
97694068,27774
97695407,27795
97696746,27785
97698085,27792
97699423,27782
97700763,27786
97702102,27778
97703442,27792
97704781,27779
97706120,27779
97707459,27784
97708798,27784
97710137,27785
97711476,27794
97712814,27787
97714154,27779
97715493,27792
97716832,27781
97718172,27790
97719511,27786
97720850,27796
97722189,27793
97723529,27770
97724869,27781
97726209,27787
97727548,27793
97728887,27791
97730226,27784
97731565,27792
97732904,27797
97734243,27786
97735582,27791
97736920,27790
97738259,27791
97739599,27785
97740938,27786
97742277,27793
97743616,27798
97744955,27793
97746294,27798
97747633,27790
97748971,27803
97750311,27800
97751650,27797
97752989,27794
97754327,27787
97755667,27797
97757006,27789
97758344,27796
97759684,27790
97761023,27799
97762362,27795
97763701,27796
97765040,27795
97766380,27805
97767718,27791
97769058,27800
97770397,27795
97771735,27807
97773075,27791
97774414,27797
97775752,27796
97777092,27803
97778431,27792
97779769,27796
97781108,27811
97782447,27802
97783786,27810
97785125,27790
97786465,27807
97787804,27796
97789143,27807
97790483,27801
97791822,27794
97793161,27800
97794502,27806
97795841,27805
97797181,27811
97798520,27810
97799859,27796
97801198,27802
97802537,27803
97804258,27811
97805599,27795
97806941,27812
97808282,27800
97809623,27809
97810964,27804
97812302,27811
97813641,27803
97814981,27812
97816319,27809
97817660,27806
97818999,27805
97821603,27807
97822943,27807
97824282,27806
97825622,27801
97826961,27797
97828300,27804
97829638,27810
97830978,27811
97832317,27798
97833656,27808
97834995,27802
97836334,27813
97837674,27808
97839014,27811
97840352,27812
97841692,27798
97843030,27807
97844370,27810
97845710,27807
97847048,27813
97848388,27812
97849727,27801
97851066,27812
97852405,27809
97853744,27802
97855083,27819
97856421,27801
97857761,27816
97859100,27811
97860439,27818
97861778,27810
97863117,27824
97864456,27807
97865796,27816
97867135,27805
97868474,27817
97869813,27817
97871152,27824
97872492,27817
97873831,27821
97875170,27812
97876510,27814
97877849,27832
97879188,27817
97880528,27818
97881869,27811
97883209,27812
97884547,27806
97885887,27826
97887226,27810
97888564,27818
97889904,27819
97891243,27823
97892582,27821
97893920,27820
97895260,27812
97896599,27802
97897938,27820
97899278,27815
97900616,27809
97901956,27814
97903295,27826
97904634,27813
97905973,27813
97907312,27814
97908651,27829
97909990,27826
97911329,27831
97912668,27822
97914007,27817
97915346,27834
97916685,27812
97918023,27818
97919363,27823
97920701,27827
97922043,27806
97923383,27826
97924722,27821
97926061,27826
97927400,27824
97928739,27825
97930077,27810
97931417,27837
97932756,27818
97934095,27826
97935433,27818
97936773,27822
97938112,27824
97939451,27826
97940790,27823
97942129,27825
97943468,27834
97944807,27821
97946146,27827
97947485,27823
97948824,27838
97950163,27823
97951502,27840
97952841,27829
97954181,27830
97956785,27821
97958125,27833
97959464,27825
97961182,27836
97962523,27821
97963863,27838
97965203,27827
97966544,27840
97967885,27836
97969223,27840
97970563,27838
97971902,27831
97973241,27840
97974582,27839
97975920,27828
97977259,27833
97978598,27852
97979938,27839
97981276,27850
97982617,27830
97983956,27838
97985295,27838
97986634,27842
97987972,27827
97989313,27821
97990653,27841
97991991,27846
97993331,27844
97994669,27834
97996009,27833
97997348,27841
97998687,27849
98000026,27834
98001365,27838
98002704,27839
98004043,27841
98005381,27836
98006721,27846
98008060,27850
98009399,27833
98010738,27839
98012077,27834
98013415,27857
98014755,27846
98016094,27856
98017432,27838
98018772,27847
98020111,27846
98021449,27853
98022788,27839
98024128,27859
98025467,27844
98026806,27856
98028145,27843
98029484,27847
98030823,27840
98032162,27861
98033502,27847
98034841,27856
98036180,27852
98037520,27849
98038859,27854
98040199,27842
98041538,27858
98042877,27846
98044215,27861
98045554,27848
98046894,27855
98048233,27847
98049573,27860
98050912,27847
98052251,27854
98053590,27855
98054929,27862
98056267,27853
98057607,27859
98058946,27852
98060285,27859
98061623,27857
98062963,27866
98064302,27861
98065640,27858
98066980,27863
98068318,27853
98069658,27858
98070998,27854
98072337,27860
98073676,27857
98075015,27857
98076353,27859
98077693,27862
98079032,27859
98080371,27868
98081710,27862
98083049,27874
98084388,27864
98085727,27869
98087066,27867
98088405,27848
98089744,27865
98092348,27858
98093688,27868
98095027,27864
98096366,27867
98097705,27852
98099043,27867
98100383,27864
98101721,27872
98103061,27861
98104399,27871
98105738,27864
98107078,27877
98108417,27871
98109756,27858
98111095,27876
98112434,27867
98113773,27873
98115112,27872
98116451,27883
98118172,27873
98119511,27873
98120851,27865
98122192,27866
98123533,27874
98124873,27868
98126212,27868
98127551,27861
98128889,27870
98130229,27868
98131568,27871
98132908,27867
98134247,27884
98135586,27864
98136924,27871
98138263,27868
98139603,27874
98140942,27864
98142281,27873
98143620,27860
98144959,27873
98146298,27870
98147637,27879
98148976,27858
98150314,27869
