15932437,23757
15938093,23765
15943822,23761
15950008,23761
15956202,23760
15962393,23757
15968582,23767
15974781,23768
15980946,23775
15992427,23920
15998672,23919
16004892,23920
16011087,23925
16017285,23926
16023479,23926
16029639,23929
16035825,23930
16041259,23936
16047487,23939
16053679,23936
16059899,23937
16066062,23931
16072268,23928
16077485,23925
16084345,23923
16090457,23928
16103484,23916
16109663,23905
16121107,23837
16127312,23827
16133489,23829
16139662,23826
16145908,23823
16152066,23822
16158306,23818
16164472,23817
16169879,23814
16176013,23817
16182144,23822
16188276,23821
16194444,23814
16200631,23814
16205101,23809
16211271,23807
16217479,23801
16223657,23808
16229865,23807
16236020,23804
16242183,23801
16248337,23800
16259714,23778
16265903,23784
16272108,23782
16278316,23777
16284489,23781
16290628,23780
16297348,23781
16302809,23780
16308993,23777
16315173,23781
16321368,23780
16327581,23779
16333817,23783
16338384,23784
16344540,23785
16350733,23773
16356906,23776
16363099,23781
16369318,23777
16375436,23778
16381605,23778
16393266,23810
16399447,23803
16405631,23797
16411877,23806
16418075,23802
16424250,23793
16430413,23800
16436575,23798
16441739,23795
16447909,23802
16454079,23808
16460291,23805
16466454,23811
16472624,23806
16477431,23806
16483583,23808
16489784,23804
16495966,23807
16502085,23808
16508794,23807
16514975,23814
16521188,23811
16527362,23816
16533541,23823
16539763,23818
16545973,23820
16552130,23821
16558293,23818
16564519,23823
16570681,23825
16575916,23820
16582112,23818
16588328,23822
16594457,23821
16600672,23827
16606875,23830
16611667,23825
16617871,23829
16624060,23828
16630224,23827
16636392,23829
16642575,23833
16648782,23836
16654960,23832
16661123,23839
16667288,23860
16673473,23856
16679655,23859
16685866,23855
16692041,23855
16698231,23861
16704433,23858
16709646,23856
16715837,23856
16722645,23861
16728856,23855
16735025,23850
16741225,23859
16746015,23855
16752220,23851
16758412,23851
16764584,23855
16770792,23855
16776977,23851
16783187,23858
16789404,23851
16795615,23859
16801883,23861
16808033,23855
16814220,23859
16820397,23859
16826593,23860
16832791,23861
16838984,23857
16844228,23856
16850430,23856
16856647,23856
16862843,23855
16869027,23854
16875215,23858
16880014,23861
16886270,23860
16892451,23860
16898655,23853
16904864,23858
16911069,23861
16917268,23861
16923482,23857
16930301,23855
16941668,23860
16947849,23857
16954029,23847
16960218,23849
16966371,23851
16972545,23855
16977995,23856
16984152,23851
16990354,23841
16996558,23840
17002766,23842
17008996,23836
17013503,23842
17019761,23829
17025947,23834
17032173,23835
17038346,23824
17044595,23828
17050821,23827
17057053,23829
17063300,23811
17069494,23818
17075750,23759
17081967,23755
17088183,23757
17094371,23755
17100603,23750
17106806,23751
17113020,23749
17119252,23747
17125521,23748
17131707,23746
17137952,23741
17144835,23752
17149331,23746
17155589,23749
17161857,23740
17168057,23747
17174265,23742
17180490,23749
17186761,23749
17193005,23749
17199226,23751
17205493,23753
17216987,23814
17223203,23813
17229394,23814
17235669,23819
17241907,23821
17247342,23818
17253606,23822
17259837,23822
17266057,23822
17272267,23810
17278523,23813
17282988,23807
17289222,23810
17295467,23805
17301646,23808
17307866,23801
17313987,23810
17320185,23797
17326408,23808
17332639,23812
17338822,23815
17351715,23815
17358542,23818
17364875,23821
17371080,23816
17376568,23810
17382708,23820
17388929,23816
17395164,23817
17401372,23813
17407618,23813
17412115,23818
17418342,23815
17424564,23815
17430790,23815
17437019,23816
17443184,23824
17449379,23821
17455610,23814
17461863,23820
17468069,23819
17474241,23822
17485597,23805
17491790,23806
17497969,23807
17504166,23807
17510419,23811
17515849,23808
17522050,23814
17528261,23815
17534448,23811
17540669,23814
17545924,23815
17552117,23823
17558365,23820
17564584,23822
17571336,23819
17577622,23820
17583839,23822
17590070,23815
17596309,23825
17602591,23826
17608856,23820
17620611,23832
17626831,23829
17633029,23828
17639267,23836
17645479,23822
17651686,23827
17657928,23830
17664090,23831
17670323,23827
17676548,23831
17681743,23822
17687249,23832
17693507,23835
17699709,23833
17705929,23827
17712053,23835
17718252,23826
17724458,23833
17730691,23833
17736956,23835
17743182,23831
17754623,23803
17760803,23799
17766977,23808
17773167,23804
17779374,23804
17785533,23800
17791716,23804
17797933,23802
17804143,23801
17810335,23801
17815850,23800
17821062,23796
17827289,23801
17833455,23790
17839609,23799
17845794,23800
17851975,23795
17858142,23791
17864411,23797
17870683,23797
17876922,23795
17888567,23784
17894803,23776
17901012,23772
17907247,23771
17913451,23774
17919630,23769
17925869,23767
17932072,23773
17938263,23769
17944551,23765
17949813,23765
17955273,23771
17961548,23770
17967759,23765
17974007,23769
17980209,23755
17986454,23763
17992673,23771
17999488,23758
18005665,23762
18011894,23763
18023310,23727
18029558,23727
18035779,23734
18042035,23732
18048261,23730
18054429,23733
18059995,23730
18066248,23734
18072436,23729
18078637,23729
18084111,23728
18090320,23723
18096536,23730
18102736,23730
18108983,23723
18115174,23732
18121386,23729
18127625,23730
18133854,23727
18140078,23722
18146308,23728
18157783,23705
18163981,23702
18170242,23711
18176440,23706
18182620,23710
18188856,23715
18194337,23719
18200580,23724
18207458,23724
18213650,23733
18218943,23730
18225174,23730
18230687,23729
18236901,23735
18243124,23744
18249332,23739
18255589,23744
18261819,23744
18268022,23741
18274232,23742
18280438,23746
18291950,23816
18298176,23826
18304367,23828
18310548,23833
18316773,23831
18322997,23829
18328453,23836
18334633,23835
18340849,23839
18347018,23841
18352617,23842
18358857,23842
18364066,23846
18370261,23842
18376457,23838
18382671,23844
18388837,23843
18395009,23837
18401267,23836
18407485,23839
18413739,23837
18426101,23831
18432351,23831
18438567,23832
18444824,23831
18451063,23826
18457288,23835
18462720,23837
18468963,23831
18475221,23838
18481461,23828
18486687,23835
18492928,23832
18498455,23828
18504627,23828
18510846,23824
18517009,23821
18523198,23820
18529393,23823
18535638,23820
18541876,23823
18548097,23828
18554345,23823
18560593,23803
18566835,23803
18573071,23797
18579295,23798
18585568,23796
18591806,23798
18604642,23792
18610971,23795
18616558,23793
18622831,23794
18628091,23791
18634371,23795
18641170,23788
18647417,23793
18653671,23794
18659933,23792
18666114,23790
18672346,23790
18678564,23786
18684822,23791
18696578,23805
18702793,23804
18708996,23804
18715175,23806
18721399,23809
18727656,23809
18732893,23814
18739132,23812
18745393,23805
18750837,23813
18757056,23811
18762592,23811
18768835,23815
18775084,23815
18781316,23816
18787557,23819
18793784,23814
18799966,23811
18806141,23808
18812384,23813
18818631,23811
18830134,23829
18836330,23833
18842559,23830
18849414,23830
18855638,23831
18861900,23833
18867353,23827
18873573,23836
18879798,23832
18885006,23830
18891263,23837
18896716,23834
18902953,23834
18909208,23840
18915453,23834
18921661,23835
18927884,23837
18934105,23843
18940305,23833
18946496,23833
18952715,23836
18964226,23839
18970445,23836
18976687,23834
18982885,23839
18989077,23834
18995300,23836
19000760,23838
19006994,23838
19013229,23832
19019444,23833
19025710,23833
19031951,23840
19038186,23833
19044432,23838
19050654,23837
19056876,23835
19063743,23834
19069937,23834
19076175,23830
19082405,23830
19088618,23839
19100059,23837
19106277,23839
19112479,23837
19118681,23844
19124921,23840
19131094,23843
19136603,23834
19142857,23837
19149052,23839
19155300,23839
19160530,23831
19165971,23831
19172146,23840
19178373,23836
19184588,23839
19190850,23842
19197076,23836
19203267,23834
19209526,23834
19215769,23836
19221992,23839
19233494,23836
19239738,23839
19245980,23832
19252224,23837
19258419,23834
19264611,23834
19270047,23839
19276897,23831
19283039,23833
19289310,23832
19294540,23829
19300777,23828
19306998,23838
19313233,23834
19319444,23833
19325628,23832
19331885,23834
19338091,23836
19344354,23832
19350597,23840
19356838,23834
19368592,23829
19374748,23835
19381003,23836
19387213,23832
19393480,23832
19399722,23829
19404938,23835
19411155,23834
19417369,23833
19423588,23838
19429036,23837
19435273,23843
19441529,23838
19447773,23835
19453985,23832
19460194,23840
19466417,23845
19472641,23839
19478890,23839
19485782,23844
19492012,23839
19503426,23831
19509654,23833
19515914,23832
19522095,23830
19528314,23830
19534545,23828
19540056,23831
19546235,23830
19552430,23823
19558631,23829
19563853,23834
19570021,23827
19575502,23825
19581670,23831
19587909,23833
19594109,23832
19600276,23829
19606444,23823
19612608,23824
19618836,23822
19625036,23828
19636444,23826
19642627,23821
19648890,23822
19655038,23826
19661244,23828
19667444,23821
19673619,23820
19679800,23823
19686004,23819
19692207,23818
19698405,23819
19704617,23823
19710067,23821
19716298,23822
19722504,23818
19728716,23822
19734947,23817
19741109,23821
19747325,23824
19753505,23817
19759685,23817
19771111,23818
19777335,23815
19783566,23817
19789791,23820
19795986,23809
19802224,23818
19808403,23810
19813954,23814
19820185,23816
19826411,23816
19831855,23816
19838045,23816
19844263,23820
19857125,23817
19863410,23814
19869715,23815
19875947,23817
19882179,23819
19888408,23818
19894666,23812
19900930,23797
19907109,23800
19913957,23796
19920203,23795
19926447,23797
19932678,23794
19938910,23792
19944092,23797
19950322,23792
19956566,23789
19962077,23795
19968288,23794
19973527,23792
19979720,23799
19985955,23795
19992169,23793
19998409,23785
20004642,23793
20010848,23791
20017040,23795
20023223,23790
20029450,23789
20041122,23790
20047295,23787
20053513,23789
20059724,23788
20065957,23788
20072154,23791
20077374,23793
20083574,23788
20089832,23790
20095289,23790
20101556,23787
20107809,23789
20114005,23791
20120241,23796
20127098,23785
20133274,23791
20139482,23794
20145714,23786
20151925,23791
20158104,23788
20164305,23791
20175750,23788
20182031,23789
20188273,23788
20194470,23785
20200637,23782
20206848,23786
20212315,23792
20218511,23785
20224721,23785
20229962,23788
20236209,23790
20242468,23789
20247985,23790
20254228,23788
20260450,23789
20266675,23782
20272879,23783
20279100,23789
20285320,23782
20291559,23787
20297810,23785
20309264,23774
20315477,23772
20321718,23775
20327962,23773
20334206,23781
20341022,23778
20346470,23768
20352680,23769
20358908,23772
20364133,23772
20370358,23770
20376585,23771
20382110,23774
20388365,23772
20394597,23768
20400850,23771
20407116,23764
20413383,23767
20419616,23766
20425878,23769
20432100,23768
20443545,23767
20449827,23759
20456033,23770
20462274,23772
20468451,23768
20474635,23761
20480890,23763
20487082,23766
20493283,23769
20498782,23764
20505022,23759
20511255,23760
20516428,23764
20522669,23763
20528949,23760
20535170,23765
20541377,23768
20547626,23767
20554508,23761
20560738,23770
20566995,23765
20578784,23764
20585008,23763
20591250,23758
20597470,23762
20603710,23758
20609963,23761
20616203,23760
20621446,23762
20627677,23760
20633179,23753
20639357,23761
20645583,23761
20650830,23760
20657083,23763
20663287,23755
20669490,23758
20675715,23755
20681949,23758
20688164,23758
20694414,23758
20700637,23759
20706903,23762
20713154,23767
20719386,23760
20725565,23765
20731818,23765
20738047,23760
20744248,23766
20750468,23757
20755933,23767
20762138,23762
20768360,23760
20774633,23760
20780906,23764
20786097,23765
20792345,23763
20798558,23759
20804832,23763
20811037,23769
20817266,23765
20823464,23759
20829722,23763
20835952,23765
20842210,23765
20853936,23776
20860142,23778
20866356,23779
20872613,23780
20878874,23782
20885126,23772
20890356,23784
20896562,23779
20902065,23777
20908322,23778
20914507,23773
20920734,23781
20926984,23784
20933173,23777
20939401,23776
20945636,23771
20951822,23780
20958032,23781
20964245,23780
20970496,23777
20977383,23779
20988887,23767
20995132,23773
21001333,23781
21007504,23768
21013739,23776
21019953,23769
21025439,23771
21031677,23771
21036887,23768
21043125,23771
21049358,23769
21054837,23768
21061041,23761
21067230,23766
21073418,23771
21079614,23761
21085806,23759
21092025,23761
21104837,23764
21116562,23761
21122822,23760
21129045,23759
21135239,23752
21141428,23758
21147644,23760
21152858,23758
21159071,23762
21164501,23759
21170708,23757
21176964,23761
21183205,23752
21188423,23754
21195278,23753
21201505,23756
21207730,23752
21213920,23757
21220056,23758
21226255,23749
21232476,23763
21238644,23757
21244834,23756
21251043,23752
21257242,23750
21263476,23752
21269667,23748
21275932,23749
21282161,23753
21287641,23743
21293856,23750
21299081,23755
21305291,23752
21311480,23749
21317676,23752
21323106,23753
21329310,23744
21335525,23749
21341715,23746
21347932,23750
21354108,23748
21360286,23746
21366480,23752
21372659,23752
21378901,23748
21385085,23751
21391321,23753
21397581,23752
21403789,23748
21410684,23750
21416893,23749
21422123,23748
21428298,23748
21433728,23743
21440004,23746
21446233,23749
21452441,23744
21457676,23742
21463897,23751
21470069,23740
21476294,23748
21482462,23744
21488694,23750
21494934,23748
21501135,23750
21507416,23753
21513638,23746
21519899,23746
21531655,23746
21537936,23740
21544156,23734
21550395,23737
21556662,23746
21562859,23744
21568089,23743
21574306,23743
21580538,23740
21586752,23742
21592275,23744
21598497,23739
21604751,23747
21610994,23741
21617194,23742
21624071,23742
21630331,23737
21636596,23742
21642779,23736
21649011,23737
21655231,23740
21666735,23742
21672948,23734
21679193,23733
21685433,23738
21691642,23735
21697144,23744
21702377,23738
21708560,23735
21714722,23736
21720965,23730
21726476,23738
21732682,23737
21738933,23736
21745141,23735
21751344,23738
21757568,23734
21763796,23736
21770021,23731
21776293,23729
21782545,23731
21788771,23725
21800151,23722
21806389,23735
21812590,23725
21818731,23727
21824959,23723
21831790,23720
21837358,23724
21843621,23720
21849853,23722
21856098,23722
21861301,23720
21867548,23720
21873834,23725
21880020,23719
21886253,23724
21892473,23722
21898686,23727
21904912,23722
21911131,23725
21917379,23725
21923587,23723
21935357,23724
21941625,23720
21947833,23724
21954009,23721
21960239,23720
21966451,23718
21970995,23718
21977248,23719
21983448,23722
21989676,23722
21995197,23722
22001409,23720
22007660,23718
22013900,23718
22020130,23721
22026347,23722
22032558,23727
22038789,23721
22045700,23723
22051922,23722
22058090,23714
22069577,23719
22075829,23712
22082083,23714
22088322,23718
22094540,23709
22100748,23716
22105483,23717
22111743,23715
22117962,23715
22124169,23716
22129402,23716
22135600,23715
22141841,23712
22148048,23718
22154266,23712
22160488,23721
22166662,23712
22172826,23713
22179023,23712
22185236,23718
22191452,23712
22203094,23708
22209278,23712
22215506,23714
22221686,23707
22227899,23713
22234083,23711
22239591,23709
22245771,23713
22251980,23714
22258723,23712
22263960,23712
22270143,23707
22276366,23711
22282571,23706
22288724,23708
22294915,23707
22301043,23707
22307299,23708
22313566,23710
22319768,23709
22325992,23715
22337604,23707
22343837,23702
22356633,23710
22362873,23702
22369101,23709
22374273,23705
22380431,23703
22386627,23709
22392099,23710
22398326,23706
22404515,23702
22410716,23706
22416948,23706
22423147,23707
22429333,23706
22435520,23706
22441717,23707
22447939,23706
22454146,23697
22460338,23711
22472324,23695
22478541,23696
22484731,23696
22490932,23688
22497097,23699
22503325,23694
22508820,23690
22514989,23698
22521180,23689
22527384,23688
22533588,23693
22539804,23693
22545986,23693
22552168,23690
22558338,23688
22564541,23696
22570729,23692
22576954,23691
22583198,23701
22589422,23692
22595666,23687
22601882,23693
22608110,23696
22614313,23697
22620489,23696
22626666,23698
22632898,23695
22639103,23695
22644647,23694
22649868,23695
22656059,23696
22661523,23695
22667756,23693
22673987,23693
22680172,23695
22687034,23692
22693275,23693
22699491,23697
22705675,23691
22711906,23693
22718133,23694
22724329,23694
22730568,23685
22742051,23689
22748312,23689
22754552,23683
22760716,23693
22766977,23684
22773190,23696
22778650,23691
22783924,23697
22790165,23688
22796375,23687
22802581,23689
22808852,23689
22815103,23695
22821340,23687
22827592,23694
22833810,23689
22840024,23691
22846242,23688
22852435,23685
22858683,23687
22864927,23687
22876666,23687
22882917,23679
22889111,23683
22895932,23684
22902153,23682
22908361,23683
22913576,23684
22919031,23683
22925273,23679
22930528,23686
22936718,23678
22942938,23679
22949168,23683
22955386,23684
22961554,23679
22967728,23683
22973936,23684
22980136,23680
22986331,23682
22992517,23682
22998748,23678
23010430,23677
23016614,23677
23022833,23679
23029041,23675
23035197,23678
23041420,23672
23046639,23676
23052096,23673
23058263,23681
23064467,23670
23069677,23672
23075917,23676
23082081,23676
23088280,23671
23094499,23680
23100709,23683
23107428,23669
23113646,23679
23119909,23675
23126091,23677
23132317,23677
23138523,23677
23144731,23678
23150932,23677
23157125,23678
23163367,23676
23169616,23681
23175794,23674
23181239,23674
23186437,23672
23192654,23679
23198858,23671
23204309,23671
23210504,23673
23216678,23672
23222930,23672
23229147,23674
23235343,23672
23241519,23676
23247703,23676
23253934,23674
23260194,23674
23266419,23669
23272673,23667
23278914,23678
23285133,23663
23291292,23665
23297503,23661
23303686,23667
23309900,23665
23315088,23669
23321264,23662
23327483,23660
23333704,23657
23339903,23659
23346097,23659
23352306,23654
23358454,23659
23364640,23654
23370803,23666
23377018,23661
23383220,23662
23389435,23658
23395639,23652
23401844,23660
23408019,23659
23414204,23658
23425910,23655
23432091,23648
23438272,23658
23444421,23656
23449644,23653
23455815,23659
23461982,23648
23468159,23652
23473636,23652
23479848,23653
23486053,23643
23492226,23656
23498396,23649
23504598,23650
23510753,23650
23516959,23655
23523180,23651
23530067,23658
23536318,23654
23542548,23644
23548767,23646
23560251,23640
23566464,23647
23572664,23642
23578924,23641
23584426,23643
23590710,23641
23595970,23645
23608834,23644
23615083,23638
23621410,23635
23627593,23638
23633777,23645
23640008,23637
23646239,23642
23652502,23643
23658722,23645
23665010,23638
23671276,23640
23677456,23645
23689094,23628
23695268,23632
23701520,23628
23707759,23638
23713015,23634
23719252,23629
23724741,23635
23730991,23642
23737242,23636
23743491,23636
23750342,23630
23756603,23628
23762831,23630
23769067,23633
23775231,23633
23781434,23630
23787674,23631
23793935,23631
23800158,23632
23806378,23634
23812628,23634
23824086,23629
23830300,23624
23836503,23622
23842689,23630
23848087,23625
23854239,23624
23859463,23624
23865722,23623
23871970,23624
23878222,23620
23883693,23620
23889956,23622
23896138,23620
23902394,23619
23908599,23621
23914772,23616
23920948,23621
23927154,23624
23933354,23619
23939535,23623
23945737,23621
23957133,23616
23964026,23620
23970269,23615
23976448,23616
23981927,23613
23988117,23619
23993344,23617
23999542,23612
24005707,23616
24011878,23618
24017284,23618
24023528,23621
24029732,23623
24035946,23616
24042149,23612
24048304,23618
24054538,23613
24060716,23618
24066955,23612
24073146,23611
24079337,23618
24085514,23616
24091722,23606
24097958,23609
24104142,23602
24110308,23607
24115513,23608
24121686,23603
24127870,23609
24134060,23608
24140295,23603
24146481,23604
24151938,23605
24158187,23603
24164409,23604
24170602,23607
24177419,23604
24183624,23605
24189819,23606
24196075,23607
24202282,23607
24208393,23606
24214658,23601
24220861,23598
24232346,23586
24238513,23596
24244732,23591
24250171,23588
24256302,23597
24262496,23593
24267685,23589
24273931,23590
24280137,23594
24286359,23591
24292598,23589
24298851,23588
24305091,23589
24311323,23591
24317517,23589
24323746,23590
24329974,23585
24336201,23596
24342446,23590
24348666,23588
24354926,23587
24366643,23584
24372887,23586
24379083,23586
24384907,23581
24391173,23579
24397376,23577
24402896,23580
24409118,23582
24415385,23578
24421642,23579
24426861,23581
24433099,23577
24439318,23581
24445531,23582
24451736,23578
24458013,23582
24464247,23578
24470478,23574
24476666,23574
24482882,23575
24489131,23578
24500831,23575
24507053,23570
24513237,23569
24519443,23569
24525674,23572
24531882,23570
24537095,23571
24543330,23574
24549521,23568
24555727,23566
24561178,23570
24567387,23567
24573621,23573
24579853,23571
24586048,23575
24592273,23568
24599100,23574
24605355,23565
24611586,23570
24617800,23573
24623969,23571
24635431,23567
24641637,23568
24647879,23568
24653289,23561
24659549,23562
24665802,23564
24671080,23565
24677312,23566
24683513,23563
24689736,23565
24695247,23565
24701485,23562
24707625,23570
24713835,23564
24720066,23563
24726277,23562
24732505,23559
24738718,23565
24744962,23561
24751164,23562
24757418,23559
24763673,23561
24769897,23558
24776147,23571
24782359,23563
24787596,23564
24793816,23565
24800081,23567
24805543,23562
24812350,23562
24818619,23557
24824874,23560
24830072,23559
24836321,23556
24842542,23557
24848755,23562
24861826,23558
24868068,23560
24874335,23560
24880611,23559
24886839,23560
24893095,23559
24904563,23555
24910852,23553
24917052,23560
24923278,23554
24929522,23559
24934994,23555
24941233,23559
24947498,23563
24953731,23552
24958979,23557
24965257,23558
24971541,23555
24977797,23562
24983972,23555
24990205,23560
24996426,23553
25002659,23555
25008888,23555
25015102,23555
25021354,23553
25028146,23550
25039920,23538
25046138,23545
25052316,23545
25057557,23539
25063791,23543
25070039,23538
25076245,23541
25082485,23544
25088637,23536
25094148,23532
25100339,23535
25106611,23539
25112839,23542
25119026,23543
25125253,23537
25131485,23536
25137726,23533
25143975,23533
25150178,23540
25156420,23537
25162632,23539
25174073,23527
25180336,23525
25186560,23532
25192046,23525
25198252,23529
25204440,23528
25209699,23523
25215891,23528
25222075,23530
25227555,23523
25233794,23527
25240009,23521
25246900,23521
25253126,23522
25259313,23528
25265516,23524
25271673,23518
25277896,23521
25284126,23518
25290319,23526
25296550,23525
25308011,23520
25314187,23520
25320399,23517
25325913,23521
25332127,23518
25338313,23515
25343524,23516
25349724,23518
25355955,23519
25362144,23515
25368388,23519
25374590,23516
25380809,23522
25386995,23510
25393193,23513
25399386,23517
25405557,23510
25411775,23512
25418018,23520
25424229,23519
25430476,23517
25436692,23521
25442969,23512
25449196,23515
25456079,23512
25461561,23516
25467772,23517
25474004,23512
25479219,23516
25485416,23515
25491635,23516
25497896,23512
25503404,23515
25509645,23509
25515882,23515
25522070,23510
25528293,23512
25534470,23515
25540684,23511
25546936,23516
25553148,23512
25559337,23516
25565536,23514
25571721,23514
25583204,23510
25589423,23511
25594899,23507
25601078,23512
25607273,23509
25612491,23512
25618675,23511
25624916,23503
25631115,23516
25636627,23514
25642859,23513
25649057,23512
25655243,23509
25661431,23504
25668193,23510
25674375,23510
25680584,23507
25686823,23509
25693031,23513
25699246,23505
25705389,23511
25716843,23507
25723022,23509
25728468,23513
25734660,23505
25740864,23505
25747112,23504
25753302,23497
25759487,23508
25765682,23504
25770886,23507
25777100,23508
25783324,23503
25789547,23510
25795739,23514
25801912,23511
25808071,23509
25814312,23511
25820485,23507
25826687,23514
25832901,23504
25839061,23506
25845269,23504
25851462,23494
25857623,23492
25863018,23494
25869218,23494
25875396,23496
25882159,23500
25887376,23496
25893557,23496
25899720,23491
25905902,23495
25912062,23495
25918240,23490
25924447,23492
25930645,23496
25936809,23499
25943010,23495
25949172,23494
25955372,23494
25961603,23488
25967801,23494
25973995,23489
25985693,23483
25991941,23484
25997157,23485
26003346,23478
26009491,23482
26015708,23480
26021922,23483
26028119,23482
26034316,23477
26040487,23478
26045940,23477
26052150,23479
26058325,23478
26064511,23479
26070689,23479
26076887,23481
26083078,23479
26089963,23484
26096183,23479
26109012,23486
26115180,23465
26121438,23466
26126936,23468
26133136,23474
26139322,23466
26145490,23467
26150738,23466
26156941,23465
26163109,23465
26169342,23469
26174842,23468
26181022,23465
26187231,23469
26193416,23468
26199617,23472
26205782,23468
26211983,23461
26218172,23466
26224401,23468
26230635,23465
26236848,23468
26243056,23469
26254470,23456
26260650,23456
26266846,23457
26273025,23456
26279211,23455
26285411,23462
26291654,23460
26297859,23461
26304660,23455
26310172,23459
26316347,23458
26322554,23455
26328737,23449
26334956,23455
26341111,23459
26347323,23457
26353503,23462
26359670,23454
26365898,23455
26372096,23459
26378289,23455
26389683,23446
26395893,23446
26401337,23447
26407504,23445
26413691,23442
26419915,23445
26425122,23444
26431311,23450
26437518,23448
26443715,23436
26449925,23449
26456102,23444
26462350,23445
26468577,23446
26474864,23439
26481097,23449
26487356,23442
26493585,23440
26499759,23439
26505987,23443
26512225,23446
2212014593,404
26524588,23435
26530773,23430
26535953,23440
26542151,23440
26548370,23438
26554539,23433
26559983,23436
26566213,23433
26572480,23436
26578733,23440
26583972,23436
26590210,23439
26596411,23435
26602633,23432
26608916,23431
26615102,23431
26621350,23432
26627558,23435
26633813,23431
26640049,23436
26646283,23430
26652505,23437
26658705,23423
26664976,23418
26670485,23416
26676721,23417
26682957,23416
26689183,23417
26694398,23416
26700600,23411
26706858,23410
26713092,23410
26718583,23411
26724790,23420
26731615,23412
26737861,23413
26744071,23411
26750301,23407
26756451,23415
26762685,23416
26768865,23412
26775080,23412
26781317,23408
26787569,23412
26799059,23401
26804540,23399
26810730,23399
26816938,23399
26823151,23398
26828424,23401
26834637,23403
26840854,23398
26847080,23402
26852503,23398
26858736,23404
26864950,23400
26871163,23401
26877402,23399
26883628,23396
26889853,23399
26896081,23402
26902321,23404
26908545,23395
26914790,23402
26921014,23401
26932500,23397
26937971,23384
26944752,23386
26950949,23389
26957124,23388
26963346,23386
26969573,23385
26975763,23394
26981940,23386
26987207,23387
26993417,23389
26999593,23391
27005793,23384
27012054,23388
27018239,23379
27024491,23385
27030726,23375
27036941,23385
27043200,23386
27049460,23380
27055713,23387
27067399,23375
27072605,23381
27078880,23375
27085079,23374
27091304,23375
27097579,23374
27103017,23373
27109240,23374
27115494,23371
27121760,23374
27127972,23378
27134212,23371
27140412,23370
27146653,23372
27152848,23369
27159762,23379
27165982,23370
27172177,23374
27178394,23374
27184617,23372
27190843,23367
27202308,23366
27207769,23362
27214037,23360
27220238,23359
27226501,23361
27232747,23365
27237988,23361
27244206,23361
27250396,23362
27256637,23358
27262135,23363
27268383,23357
27274579,23361
27280767,23356
27286991,23356
27293260,23360
27299520,23360
27305735,23360
27311994,23354
27318224,23354
27324490,23364
27335958,23347
27341448,23344
27347683,23340
27360495,23341
27366660,23337
27373444,23343
27379712,23338
27385900,23339
27391327,23340
27397539,23343
27403743,23341
27409934,23337
27416118,23341
27422280,23337
27428412,23337
27434624,23338
27440834,23337
27447078,23336
27453260,23336
27459457,23336
27465643,23334
27470882,23330
27477095,23339
27483267,23331
27489451,23327
27495681,23334
27501894,23330
27507334,23327
27513629,23330
27519842,23333
27525046,23334
27531274,23335
27537473,23335
27543659,23330
27549859,23334
27556073,23331
27562306,23332
27568522,23335
27574769,23337
27580964,23337
27587825,23335
27594034,23338
27605012,23333
27611240,23335
27617395,23331
27623566,23340
27629736,23334
27635953,23333
27641196,23336
27647416,23339
27653634,23341
27659828,23336
27666028,23337
27672207,23337
27678463,23336
27684616,23338
27690774,23341
27696985,23331
27703162,23337
27709379,23335
27715573,23340
27721776,23334
27727993,23338
27734112,23337
27739613,23337
27745850,23338
27752082,23341
27758229,23333
27764513,23335
27770796,23336
27776049,23333
27782279,23336
27788510,23338
27795345,23331
27800894,23338
27807104,23334
27813298,23336
27819480,23336
27825745,23335
27831986,23333
27838210,23330
27844414,23337
27850594,23333
27856863,23328
27863075,23337
27873774,23325
27880013,23330
27886242,23323
27892449,23325
27898630,23330
27904849,23328
27910331,23326
27916604,23321
27922852,23324
27929079,23322
27934624,23324
27940860,23334
27947071,23324
27953268,23322
27959486,23316
27965698,23326
27971898,23326
27978130,23320
27984373,23324
27990602,23320
27996852,23323
28003090,23324
28008965,23310
28015191,23320
28021400,23314
28027647,23306
28033817,23313
28040088,23305
28045578,23307
28051771,23309
28058015,23317
28064244,23313
28069438,23311
28075676,23312
28081909,23313
28088129,23306
28094338,23311
28100567,23310
28106811,23312
28113051,23309
28119298,23305
28125514,23305
28131765,23310
28137986,23309
28148764,23290
28155051,23290
28161251,23290
28167444,23287
28173637,23292
28179062,23290
28185251,23279
28191457,23293
28197672,23295
28202853,23284
28209110,23290
28215267,23281
28222093,23282
28228304,23285
28234538,23283
28240766,23283
28247021,23276
28253284,23277
28259491,23277
28265697,23276
28271919,23279
28277357,23281
28283576,23264
28289747,23266
28295975,23259
28302132,23262
28308337,23268
28313491,23271
28319694,23267
28325871,23264
28332062,23265
28337564,23258
28343749,23267
28349972,23269
28356160,23268
28362330,23267
28368544,23261
28374729,23267
28381010,23268
28387203,23271
28393411,23265
28399565,23266
28405852,23265
28411078,23265
28417268,23281
28423429,23276
28430247,23275
28436541,23272
28442761,23277
28448231,23274
28454366,23275
28460562,23280
28466764,23273
28471976,23278
28478192,23278
28484374,23278
28490594,23283
28496786,23285
28502989,23277
28509147,23288
28515377,23282
28521583,23288
28527799,23287
28534046,23283
28540288,23284
28545759,23285
28557172,23302
28563381,23301
28569601,23304
28575789,23301
28581963,23305
28588160,23303
28594390,23303
28607162,23304
28613408,23303
28619690,23308
28625908,23308
28632095,23307
28638281,23310
28644495,23313
28651424,23311
28657669,23309
28663939,23310
28670151,23309
28675675,23308
28687210,23317
28693439,23320
28699656,23317
28705880,23319
28712097,23326
28717611,23320
28723846,23312
28730103,23315
28736337,23321
28741599,23329
28747824,23323
28754065,23319
28760283,23317
28766494,23318
28772679,23327
28778932,23327
28785191,23326
28791432,23321
28797640,23324
28803770,23319
28809244,23323
28815457,23328
28821704,23318
28827857,23321
28834103,23317
28840321,23321
28846623,23317
28851813,23317
28858085,23320
28865000,23318
28871250,23318
28876749,23313
28882974,23316
28889161,23315
28895379,23317
28901631,23320
28907861,23313
28914117,23313
28920355,23314
28926574,23311
28932877,23316
28939100,23318
28944340,23318
28950586,23317
28962255,23313
28968476,23315
28974721,23314
28981004,23313
28986218,23312
28992477,23321
28998728,23317
29004954,23313
29010461,23313
29016713,23316
29022946,23319
29029149,23318
29035380,23319
29041628,23317
29047865,23325
29054103,23317
29060352,23325
29066600,23323
29072818,23325
29079066,23331
29085291,23330
29096689,23373
29102929,23375
29109178,23371
29115391,23377
29120875,23378
29127101,23371
29133362,23377
29139613,23382
29144851,23373
29151062,23375
29157272,23373
29163507,23377
29169744,23372
29176029,23376
29182289,23374
29188530,23368
29194753,23368
29201002,23367
29207226,23371
29212721,23373
29218948,23371
29230400,23393
29236644,23386
29242862,23392
29249070,23391
29255311,23386
29261540,23394
29267759,23390
29274024,23382
29279454,23390
29285674,23388
29292586,23387
29298756,23395
29304977,23393
29311204,23389
29317402,23388
29323660,23389
29329924,23389
29336109,23395
29342327,23387
29347581,23383
29353779,23387
29365462,23405
29371682,23399
29377930,23406
29384192,23410
29389441,23406
29395699,23403
29401967,23405
29408185,23408
29413696,23407
29419940,23404
29426142,23401
29432353,23399
29438579,23399
29444804,23410
29450993,23402
29457232,23403
29463436,23408
29469643,23395
29475876,23396
29482085,23400
29488282,23396
29500290,23399
29506535,23411
29512713,23401
29518963,23401
29524473,23404
29530707,23402
29536892,23401
29543116,23408
29548297,23402
29554538,23400
29560776,23406
29567029,23401
29573221,23396
29579454,23399
29585670,23399
29591908,23400
29598156,23395
29604404,23398
29610640,23393
29616932,23391
29622438,23387
29633936,23379
29640151,23382
29646370,23381
29652605,23387
29658851,23381
29665073,23379
29671275,23384
29677530,23390
29682976,23389
29689226,23382
29695451,23386
29701690,23390
29707890,23381
29714711,23383
29720938,23388
29727139,23386
29733338,23391
29739482,23390
29745731,23386
29751975,23392
29757216,23390
29768837,23386
29775079,23391
29781261,23388
29787463,23392
29793718,23389
29798985,23387
29805178,23387
29811392,23390
29817621,23387
29823850,23390
29830145,23391
29836376,23382
29842612,23381
29848833,23381
29861928,23384
29868107,23388
29874424,23388
29880634,23387
29885886,23383
29897581,23403
29903731,23404
29909951,23403
29916171,23399
29922346,23402
29927616,23404
29934488,23402
29940745,23404
29946999,23405
29953220,23400
29959491,23405
29965689,23409
29971899,23403
29978066,23404
29984265,23403
29990464,23403
29996638,23400
30002842,23395
30009060,23406
30015305,23396
30020767,23398
30032205,23402
30038411,23408
30044673,23409
30050903,23407
30057066,23410
30062496,23409
30068693,23407
30074902,23409
30081103,23413
30086699,23411
30092895,23412
30099130,23410
30105321,23411
30111566,23415
30117753,23413
30123959,23417
30130190,23417
30136409,23412
30143258,23417
30149533,23413
30154798,23414
30161059,23420
30167259,23428
30173515,23427
30179715,23423
30185917,23426
30192125,23429
30197605,23425
30203787,23429
30210028,23423
30216232,23431
30221458,23426
30227657,23429
30233858,23433
30240086,23426
30246291,23425
30252499,23435
30258702,23424
30264920,23419
30271083,23424
30277316,23424
30283546,23429
30289070,23420
30295273,23422
30301416,23388
30307625,23384
30313841,23384
30320038,23385
30326269,23387
30331488,23383
30337708,23386
30343962,23384
30350185,23379
30356271,23386
30362484,23391
30368658,23383
30374896,23387
30381067,23384
30387249,23389
30393419,23385
30399627,23381
30405808,23382
30412041,23386
30418254,23383
30423457,23387
30429686,23384
30441277,23380
30447446,23383
30453617,23380
30459752,23383
30465987,23379
30472181,23386
30478384,23382
30484566,23385
30489790,23391
30496009,23388
30502184,23386
30508409,23381
30514578,23389
30520821,23387
30527001,23384
30533246,23392
30539455,23389
30545662,23394
30551857,23396
30557291,23391
30563526,23391
30575471,23405
30581670,23400
30587829,23404
30594039,23403
30600184,23399
30605653,23404
30611852,23409
30618069,23406
30624277,23408
30630462,23404
30636646,23403
30642864,23402
30649074,23405
30655259,23404
30661476,23403
30667681,23408
30673891,23403
30680113,23411
30686345,23402
30691569,23406
30697805,23404
30704037,23405
30710252,23393
30716484,23400
30722697,23399
30728990,23397
30735148,23397
30740623,23396
30746829,23398
30753030,23394
30759241,23400
30764448,23395
30770633,23400
30777421,23401
30783662,23401
30789820,23396
30795990,23399
30802233,23408
30808491,23403
30814736,23407
30820971,23404
30826476,23408
30832695,23407
30838901,23414
30850359,23414
30856537,23409
30862744,23407
30868990,23414
30874451,23410
30880710,23414
30886901,23414
30893117,23411
30899369,23415
30905556,23415
30911809,23420
30918018,23417
30924217,23418
30930431,23421
30936672,23414
30942899,23423
30949157,23418
30955380,23417
30960611,23413
30966861,23418
30973051,23419
30984768,23437
30991674,23431
30997904,23434
31004148,23430
31009386,23434
31015589,23428
31021846,23429
31028091,23438
31033611,23434
31039815,23427
31046027,23433
31052211,23429
31058398,23434
31064612,23434
31070816,23435
31077065,23435
31083324,23434
31089557,23438
31094779,23434
31101032,23435
31113868,23437
31120069,23436
31126332,23437
31132536,23436
31138015,23440
31144245,23439
31150495,23435
31156720,23442
31162940,23440
31169139,23441
31175372,23442
31181649,23444
31187877,23433
31194086,23428
31200321,23436
31206523,23435
31213297,23441
31219557,23442
31224796,23437
31231061,23446
31237242,23436
31243466,23438
31255124,23440
31261351,23448
31267584,23442
31272817,23447
31279065,23446
31285306,23444
31291562,23445
31297799,23448
31303287,23450
31309475,23452
31315704,23453
31321929,23457
31328133,23449
31334300,23450
31340534,23451
31346790,23455
31353062,23452
31358272,23448
31364484,23454
31370672,23456
31376939,23455
31388605,23471
31394839,23472
31401090,23474
31407280,23468
31413529,23466
31419786,23471
31426646,23467
31432872,23469
31438116,23471
31444331,23474
31450517,23469
31456733,23472
31462966,23476
31469156,23473
31475355,23473
31481648,23467
31487855,23472
31493259,23468
31499454,23471
31505628,23465
31511780,23473
31523226,23461
31529475,23463
31535672,23461
31541904,23463
31547385,23462
31553620,23458
31559857,23464
31566099,23458
31571311,23455
31577557,23456
31583751,23460
31589992,23454
31596222,23464
31602438,23465
31608635,23462
31614865,23459
31621025,23463
31626493,23461
31632712,23461
31639498,23460
31645689,23459
31657193,23486
31663430,23487
31669685,23491
31675927,23488
31681399,23492
31687617,23489
31693822,23493
31700027,23492
31706220,23494
31712432,23494
31718643,23496
31724861,23497
31731064,23492
31737278,23492
31743493,23495
31749757,23491
31755999,23490
31761192,23489
31767421,23488
31773622,23490
31779849,23486
31791456,23489
31797718,23482
31803898,23487
31810107,23486
31816321,23479
31822573,23490
31828831,23486
31835043,23490
31841284,23493
31847420,23487
31853643,23488
31859897,23487
31866087,23489
31872325,23486
31878549,23486
31884788,23486
31891060,23493
31896288,23493
31902540,23486
31908731,23488
31914971,23494
31926649,23496
31932811,23503
31939041,23496
31945263,23503
31951515,23499
31956718,23502
31962970,23502
31969207,23502
31975435,23501
31980919,23502
31987145,23503
31993350,23496
31999588,23499
32005840,23500
32012090,23502
32018314,23493
32024547,23498
32029803,23492
32036079,23498
32042347,23493
32048578,23497
32054802,23497
32061612,23492
32067861,23489
32074117,23491
32080372,23489
32086573,23485
32092013,23490
32098221,23486
32104400,23488
32110620,23490
32115833,23489
32122106,23490
32128334,23493
32134551,23488
32140794,23485
32147043,23488
32153269,23484
32159495,23485
32164964,23484
32171209,23487
32177432,23478
32183691,23489
32195103,23474
32201311,23469
32207514,23468
32213754,23469
32220016,23473
32225456,23467
32231704,23472
32237960,23470
32244183,23474
32249420,23477
32255629,23474
32261837,23478
32268049,23474
32274912,23476
32281147,23479
32287383,23481
32293594,23477
32299078,23481
32305342,23480
32311594,23476
32317776,23477
32329246,23477
32335419,23472
32341636,23481
32347907,23475
32354142,23471
32367211,23476
32373529,23479
32378803,23472
32385095,23475
32391323,23480
32397555,23480
32403703,23469
32409896,23478
32416126,23475
32422352,23482
32428565,23478
32434795,23483
32441015,23477
32447233,23480
32458911,23469
32465109,23475
32471298,23478
32477519,23475
32483761,23482
32490650,23480
32496903,23480
32503123,23475
32509344,23478
32514601,23479
32520846,23477
32527094,23477
32533344,23480
32539543,23477
32545683,23483
32551866,23479
32558096,23480
32563623,23488
32569836,23484
32576064,23476
32582273,23482
32593713,23472
32599918,23474
32606142,23473
32612365,23475
32618582,23475
32624769,23478
32630986,23481
32637172,23478
32643408,23477
32648907,23478
32655120,23479
32661292,23469
32667521,23476
32673812,23474
32680059,23484
32686288,23474
32692526,23476
32697794,23477
32704589,23473
32710824,23483
32717058,23478
32728686,23486
32734914,23475
32741115,23478
32747316,23478
32753539,23477
32759798,23482
32766037,23481
32771286,23476
32777524,23480
32782995,23477
32789239,23484
32795479,23479
32801629,23480
32807903,23482
32814118,23485
32820331,23484
32826575,23486
32831826,23477
32838071,23481
32844256,23484
32850469,23481
32856730,23478
32862990,23492
32869221,23494
32875466,23493
32881660,23488
32887906,23495
32894139,23494
32900341,23493
32905826,23500
32912070,23491
32917954,23499
32924157,23496
32930387,23492
32936596,23496
32942747,23503
32948916,23500
32955076,23501
32961319,23495
32966801,23492
32973018,23496
32979218,23504
32985411,23496
32991630,23504
33003014,23514
33009189,23515
33015408,23513
33021598,23511
33027784,23511
33033990,23510
33039411,23514
33045626,23514
33051868,23516
33058064,23516
33064257,23516
33070438,23513
33076610,23516
33082798,23515
33089037,23518
33095246,23512
33100460,23517
33106697,23519
33112872,23520
33119086,23519
33125872,23519
33137511,23537
33143700,23536
33149905,23536
33156125,23530
33162302,23532
33168528,23529
33173744,23530
33179940,23539
33186130,23534
33191592,23535
33197789,23536
33204021,23534
33210182,23542
33216371,23533
33222520,23543
33228703,23540
33234960,23536
33241153,23541
33247358,23535
33253539,23538
33259714,23536
33271131,23550
33277330,23546
33283511,23550
33289745,23552
33295948,23548
33302148,23545
33308361,23549
33314523,23551
33320748,23551
33326186,23546
33332398,23549
33339119,23546
33345308,23552
33351481,23548
33357673,23551
33363889,23553
33370080,23547
33375287,23550
33381450,23556
33387635,23551
33393935,23548
33400145,23548
33406354,23566
33412501,23558
33418689,23558
33424845,23561
33431097,23560
33437334,23559
33443543,23562
33448992,23558
33455209,23565
33460437,23558
33466616,23556
33472783,23557
33478950,23556
33485122,23558
33491305,23560
33497522,23562
33503725,23563
33509168,23560
33515401,23561
33521628,23561
33527816,23561
33534033,23561
33540228,23573
33546417,23574
33553294,23567
33559470,23570
33565696,23573
33571882,23577
33578095,23569
33583309,23574
33589509,23571
33594981,23570
33601166,23574
33613987,23569
33620176,23575
33626473,23572
33632683,23567
33637918,23570
33644122,23575
33650360,23576
33656547,23579
33662744,23572
33668976,23566
33675138,23578
33681349,23579
33687540,23582
33693733,23574
33699914,23582
33706121,23576
33712349,23583
33718560,23576
33724025,23579
33730240,23579
33736437,23581
33742621,23580
33748827,23583
33755047,23586
33761127,23579
33767954,23572
33773497,23580
33779674,23578
33785877,23578
33792114,23574
33798309,23580
33804454,23581
33815872,23595
33822059,23579
33828205,23590
33834469,23591
33840686,23587
33846899,23586
33852355,23584
33858536,23582
33864727,23587
33870933,23589
33877141,23585
33883336,23590
33889468,23585
33895705,23588
33901953,23587
33907171,23587
33913352,23593
33919521,23591
33925713,23584
33931945,23590
33938118,23588
33949757,23589
33955973,23589
33962200,23585
33968439,23591
33974641,23589
33981460,23586
33986714,23585
33992906,23589
33998396,23584
34004544,23584
34010709,23586
34016898,23587
34023103,23584
34029283,23585
34035482,23586
34040710,23582
34046921,23586
34053167,23583
34059428,23586
34065673,23588
34071910,23587
34083518,23582
34089676,23582
34095850,23586
34102049,23586
34108256,23581
34114468,23583
34120669,23582
34126900,23584
34133141,23579
34139308,23584
34145536,23587
34151690,23581
34157906,23585
34164083,23579
34170304,23584
34175495,23587
34181711,23585
34188427,23586
34194700,23589
34200945,23591
34207110,23587
34218702,23591
34224877,23594
34231084,23589
34237232,23595
34243441,23593
34249692,23595
34255909,23593
34261147,23597
34267322,23596
34272760,23589
34278971,23596
34285146,23600
34291307,23599
34297489,23593
34303715,23601
34309923,23602
34316089,23599
34322285,23601
34328446,23596
34334599,23602
34340801,23604
34347021,23594
34353182,23582
34359370,23575
34365578,23574
34371806,23575
34378050,23571
34384256,23571
34390444,23561
34395665,23561
34402496,23565
34407942,23557
34414103,23556
34420290,23558
34426457,23552
34432627,23552
34438823,23556
34445053,23546
34450250,23547
34456468,23548
34462668,23541
34468871,23543
34475054,23541
34481245,23545
34492909,23521
34499112,23520
34505334,23518
34511516,23521
34517695,23523
34523908,23520
34529176,23524
34535367,23521
34541591,23519
34547805,23525
34554031,23521
34560207,23527
34566462,23524
34572654,23525
34578909,23521
34584408,23523
34590640,23527
34596919,23524
34603150,23525
34609323,23526
34616203,23528
34627687,23515
34633942,23512
34640191,23513
34646387,23514
34652557,23513
34658770,23515
34664253,23514
34670450,23517
34676622,23517
34681858,23524
34688059,23519
34694258,23513
34700470,23512
34706669,23516
34712939,23510
34718432,23513
34724664,23511
34730858,23512
34737054,23512
34743194,23511
34749418,23509
34755617,23506
34761791,23487
34768019,23489
34774251,23482
34780480,23488
34786735,23491
34792981,23491
34798175,23488
34804385,23485
34810559,23491
34816030,23487
34822244,23490
34829036,23487
34835256,23487
34841453,23490
34847703,23480
34852940,23481
34865783,23482
34872031,23486
34878232,23486
34884469,23486
34890689,23479
34896940,23474
34903159,23478
34909383,23479
34915641,23473
34921857,23474
34928103,23473
34934358,23472
34940572,23476
34946040,23469
34952252,23474
34958422,23472
34964604,23472
34970806,23476
34977030,23471
34982268,23475
34988487,23474
34994676,23480
35000816,23480
35007024,23475
35013251,23479
35019433,23477
35031012,23482
35037167,23483
35044042,23484
35050175,23480
35056404,23480
35062567,23482
35068770,23480
35075007,23482
35080176,23485
35086425,23481
35092610,23475
35098800,23482
35104995,23482
35111184,23481
35116685,23478
35122918,23482
35129122,23484
35135328,23482
35141496,23484
35147700,23485
35153859,23479
35165274,23501
35171453,23499
35177655,23499
35183862,23500
35190065,23504
35196334,23507
35201812,23501
35208083,23499
35214311,23501
35220533,23507
35226711,23498
35232924,23504
35239089,23507
35245305,23499
35250862,23500
35257690,23506
35263934,23505
35270087,23508
35276304,23507
35282488,23512
35288666,23512
35300006,23525
35306173,23524
35312369,23522
35318579,23523
35324727,23524
35330926,23524
35336409,23525
35342610,23525
35348799,23530
35354029,23525
35360250,23527
35366475,23529
35372657,23526
35378847,23528
35385044,23529
35391247,23527
35397461,23530
35403648,23527
35409852,23532
35416048,23527
35422207,23529
35428435,23536
35434625,23553
35440820,23547
35447045,23548
35453203,23547
35459461,23551
35466269,23550
35471747,23552
35477987,23552
35484148,23547
35489360,23544
35495546,23550
35501713,23545
35507892,23548
35514090,23550
35520257,23550
35525756,23551
35531971,23551
35538149,23551
35544356,23551
35550533,23553
35556718,23551
35562932,23553
35574301,23557
35580482,23553
35586696,23559
35592898,23552
35599076,23550
35605306,23554
35611494,23557
35617689,23559
35623154,23553
35629354,23550
35635532,23555
35641731,23555
35647968,23552
35654151,23550
35659341,23553
35665565,23555
35671759,23550
35678627,23552
35684875,23548
35691091,23551
35697279,23555
35708999,23558
35715264,23560
35721486,23557
35727747,23559
35733954,23562
35740207,23563
35745488,23554
35751673,23563
35757927,23559
35764123,23548
35770304,23556
35776527,23558
35782722,23556
35788991,23564
35794453,23566
35800651,23564
35806901,23560
35813120,23565
35819325,23560
35825470,23561
35831747,23563
35843191,23567
35849433,23570
35855641,23573
35861881,23569
35868135,23574
35874354,23573
35879821,23570
35886060,23572
35891926,23573
35898150,23573
35904342,23573
35910566,23570
35916801,23571
35923051,23571
35928575,23570
35934799,23574
35941022,23572
35947245,23574
35953419,23570
35959589,23570
35965820,23575
35977230,23584
35983482,23578
35989715,23577
35995954,23575
36002158,23578
36008396,23578
36013884,23583
36020116,23581
36026330,23583
36032553,23582
36038765,23580
36045012,23576
36051223,23583
36057479,23584
36062729,23583
36068943,23586
36075140,23580
36081341,23582
36087578,23583
36093739,23577
36100476,23587
36113332,23598
36119581,23596
36125899,23598
36132200,23596
36138421,23598
36143924,23594
36150160,23595
36156400,23600
36161674,23602
36167953,23594
36174218,23600
36180454,23595
36186667,23599
36192175,23596
36198407,23598
36204605,23597
36210861,23600
36217095,23600
36223303,23601
36229513,23597
36235689,23595
36247179,23596
36253430,23597
36259615,23595
36265812,23595
36272043,23601
36278266,23597
36284496,23595
36290705,23596
36296218,23593
36302419,23601
36308640,23602
36314816,23601
36321714,23599
36326955,23600
36333172,23598
36339374,23595
36345592,23599
36351818,23597
36358034,23599
36364253,23594
36370462,23599
36382145,23600
36388367,23599
36394575,23597
36400783,23603
36407031,23600
36412255,23591
36418448,23604
36424696,23599
36430194,23598
36436386,23603
36442616,23600
36448831,23602
36455034,23605
36460212,23601
36466418,23603
36472627,23605
36478863,23597
36485088,23609
36491280,23602
36497499,23599
36503711,23601
36515459,23604
36521688,23600
36527852,23602
36534716,23609
36540936,23604
36547141,23610
36553411,23603
36559682,23606
36564880,23608
36571122,23608
36577355,23607
36583581,23606
36589812,23607
36595294,23617
36601526,23606
36607794,23609
36614009,23610
36620220,23610
36626450,23607
36632688,23605
36638917,23605
36650367,23606
36656578,23608
36662808,23612
36669040,23611
36675248,23603
36681455,23607
36686909,23613
36693147,23609
36699343,23607
36705547,23608
36711771,23605
36717930,23604
36724143,23610
36729385,23607
36735593,23612
36741861,23608
36748664,23610
36754868,23613
36761142,23609
36767349,23606
36773539,23607
36785189,23610
36791455,23612
36797731,23609
36803980,23609
36810206,23614
36816429,23614
36821620,23609
36827785,23610
36834023,23608
36839494,23608
36845724,23613
36851927,23614
36858158,23602
36863411,23613
36869635,23608
36875864,23611
36882121,23616
36888295,23612
36894548,23611
36900773,23614
36907030,23615
36913247,23610
36919468,23606
36925712,23596
36931940,23601
36938202,23598
36944428,23597
36950654,23602
36956147,23604
36963020,23599
36969258,23598
36974456,23596
36980698,23598
36986958,23597
36993170,23591
36998665,23596
37004822,23599
37011042,23601
37017247,23595
37023480,23599
37029717,23596
37035961,23589
37042189,23589
37053636,23546
37059877,23541
37066112,23542
37072353,23535
37078598,23532
37084821,23529
37090257,23537
37096560,23529
37102735,23528
37108890,23518
37115210,23523
37121452,23524
37127709,23522
37132978,23518
37139194,23517
37145416,23519
37151622,23517
37157866,23510
37164136,23507
37170902,23510
37177173,23507
37188756,23469
37194997,23469
37201189,23465
37207388,23467
37213564,23462
37219731,23467
37224937,23462
37231146,23462
37237361,23462
37242811,23464
37249031,23461
37255238,23456
37261439,23457
37266637,23456
37272792,23456
37278969,23453
37285138,23459
37291340,23458
37297566,23454
37303768,23452
37309956,23454
37316099,23454
37322274,23433
37328494,23438
37334745,23433
37340995,23440
37347207,23435
37353467,23437
37366522,23435
37372818,23447
37379093,23444
37385299,23445
37392171,23439
37397719,23440
37403971,23438
37410199,23443
37416343,23447
37422544,23455
37428801,23448
37435031,23448
37441255,23446
37447484,23450
37458957,23473
37465194,23474
37471420,23477
37477562,23479
37483765,23478
37490013,23475
37495510,23469
37501727,23474
37506932,23470
37513190,23473
37519349,23474
37525579,23474
37531093,23472
37537336,23475
37543602,23473
37549852,23478
37556091,23468
37562293,23473
37568540,23481
37574803,23471
37581018,23476
37592482,23487
37599284,23489
37605556,23487
37611774,23491
37618004,23489
37624215,23486
37629719,23490
37635924,23491
37641120,23491
37647299,23484
37653556,23488
37659774,23495
37665280,23494
37671555,23493
37677822,23495
37684040,23491
37690283,23501
37696498,23496
37702729,23497
37708977,23503
37715149,23498
37726600,23514
37732803,23514
37739067,23521
37745331,23516
37751555,23525
37757779,23518
37763244,23517
37769466,23518
37775703,23519
37781923,23514
37788154,23513
37794326,23517
37799533,23521
37805789,23522
37812625,23517
37818941,23520
37825173,23517
37831378,23519
37837604,23526
37843808,23528
37850049,23521
37861750,23540
37867919,23538
37874151,23540
37880388,23541
37886634,23547
37892896,23539
37898114,23544
37904353,23540
37910563,23542
37916007,23551
37922231,23540
37928455,23546
37933672,23548
37939919,23540
37946149,23545
37952362,23542
37958574,23542
37964751,23549
37970996,23543
37977232,23550
37983462,23541
37989680,23547
37995951,23553
38002190,23549
38008448,23558
38014633,23547
38020851,23549
38027647,23554
38033234,23550
38039509,23551
38045728,23552
38051180,23553
38057404,23551
38063647,23551
38068878,23557
38075119,23546
38081346,23550
38087557,23553
38093776,23555
38100025,23552
38106269,23551
38112529,23562
38118740,23554
38130499,23563
38136763,23562
38143023,23561
38149223,23562
38155429,23562
38161688,23558
38166879,23562
38173081,23558
38179293,23562
38184804,23559
38191053,23566
38197239,23566
38202480,23560
38208686,23559
38214957,23570
38221153,23559
38227399,23557
38233584,23561
38240477,23561
38246708,23561
38252979,23559
38264629,23562
38270830,23561
38277063,23550
38283283,23551
38289524,23556
38295767,23560
38301027,23556
38307205,23558
38313426,23552
38319625,23556
38325805,23558
38332065,23559
38337542,23553
38343775,23559
38350042,23553
38356294,23553
38362515,23553
38368763,23560
38374984,23559
38381155,23551
38387353,23557
38398752,23539
38404971,23535
38411138,23538
38417373,23537
38423609,23537
38429855,23540
38435385,23537
38441598,23534
38447831,23541
38454690,23536
38459925,23540
38466156,23534
38471635,23536
38477879,23542
38484116,23529
38490306,23532
38496523,23535
38502723,23537
38508935,23532
38515143,23537
38521371,23530
38527576,23531
38533832,23526
38540064,23528
38546326,23526
38552592,23529
38558767,23523
38564991,23520
38570259,23519
38576516,23524
38582680,23523
38588873,23522
38594367,23524
38600586,23525
38605846,23521
38618959,23514
38625245,23525
38631498,23524
38637719,23522
38643945,23519
38650185,23529
38656403,23520
38668491,23517
38674771,23510
38681033,23517
38687291,23518
38693503,23518
38699061,23519
38705269,23520
38711504,23525
38717722,23524
38723230,23521
38729481,23516
38734710,23525
38740947,23519
38747199,23528
38753477,23515
38759694,23524
38765964,23517
38772186,23519
38778430,23523
38784595,23519
38790827,23521
38802527,23526
38808757,23523
38814980,23516
38821245,23522
38827500,23523
38833703,23523
38839957,23524
38846146,23530
38852370,23523
38857569,23528
38863830,23526
38869289,23526
38875507,23523
38882374,23528
38888624,23533
38894861,23525
38901110,23528
38907308,23524
38913540,23518
38919794,23528
38926041,23533
38937518,23525
38943693,23528
38949866,23531
38956071,23529
38962298,23533
38968531,23531
38974033,23531
38980239,23527
38986421,23533
38991666,23533
38997892,23528
39003334,23522
