0.0,-0.009932
2.0,-0.018063
4.0,0.02193
6.0,0.026492
8.0,-0.004941
10.0,0.012611
12.0,-0.0027
14.0,0.008521
16.0,-0.011293
18.0,-0.025625
20.0,-0.027046
22.0,0.005747
24.0,0.033714
26.0,0.004041
28.0,-0.007869
30.0,0.02868
32.0,0.00356
34.0,0.001522
36.0,0.003789
38.0,-0.001985
40.0,-0.004641
42.0,-0.021523
44.0,0.007526
46.0,-0.001419
48.0,0.0179
50.0,-0.005527
52.0,-0.028588
54.0,-0.001484
56.0,0.025508
58.0,-0.00573
60.0,-0.013318
62.0,-0.017863
64.0,-0.015693
66.0,-0.004425
68.0,-0.017594
70.0,0.022608
72.0,-0.004046
74.0,0.001888
76.0,0.021916
78.0,0.023002
80.0,-0.002598
82.0,0.005751
84.0,0.012024
86.0,-0.001609
88.0,-0.025031
90.0,0.011901
92.0,0.016039
94.0,0.009519
96.0,-0.009762
98.0,0.002119
100.0,-0.002645
102.0,0.003094
104.0,0.028659
106.0,0.034038
108.0,0.023326
110.0,0.024036
112.0,0.028832
114.0,0.021757
116.0,0.024468
118.0,0.019578
120.0,0.033354
122.0,0.073032
124.0,0.057534
126.0,0.045143
128.0,0.049356
130.0,0.049976
132.0,0.075365
134.0,0.082667
136.0,0.062358
138.0,0.098598
140.0,0.090053
142.0,0.127186
144.0,0.115122
146.0,0.145206
148.0,0.118819
150.0,0.127099
152.0,0.141019
154.0,0.15675
156.0,0.152993
158.0,0.128733
160.0,0.151797
162.0,0.150256
164.0,0.14339
166.0,0.139044
168.0,0.172975
170.0,0.137997
172.0,0.127405
174.0,0.145112
176.0,0.132279
178.0,0.123342
180.0,0.129855
182.0,0.118723
184.0,0.109793
186.0,0.111605
188.0,0.094095
190.0,0.073299
192.0,0.069935
194.0,0.060552
196.0,0.064762
198.0,0.039004
200.0,0.021602
202.0,0.044714
204.0,0.018062
206.0,0.003976
208.0,0.034433
210.0,0.014171
212.0,0.0287
214.0,0.010114
216.0,-0.001556
218.0,-0.005832
220.0,0.00297
222.0,0.004761
224.0,-0.005056
226.0,0.001752
228.0,-0.01819
230.0,0.004135
232.0,-0.023761
234.0,-0.000402
236.0,0.012444
238.0,0.017941
240.0,0.026937
242.0,-0.022396
244.0,0.012113
246.0,0.018656
248.0,0.015136
250.0,-0.013616
252.0,0.006421
254.0,0.028083
256.0,-0.022324
258.0,0.007245
260.0,0.016757
262.0,-0.010396
264.0,0.008783
266.0,-0.016036
268.0,-0.012163
270.0,-0.012242
272.0,0.002895
274.0,-0.001358
276.0,0.014317
278.0,-0.014101
280.0,-0.001967
282.0,0.014418
284.0,0.008413
286.0,-0.019869
288.0,0.009979
290.0,-0.007176
292.0,0.005781
294.0,0.00451
296.0,0.01829
298.0,0.001748
300.0,-0.027807
302.0,-0.020548
304.0,0.010967
306.0,-0.003875
308.0,0.01707
310.0,0.004102
312.0,-0.011236
314.0,0.016236
316.0,-0.012111
318.0,-0.03079
320.0,0.030956
322.0,-0.028664
324.0,0.009537
326.0,0.014055
328.0,0.00213
330.0,-0.025443
332.0,0.014772
334.0,-0.022626
336.0,-0.022236
338.0,-0.009482
340.0,0.004405
342.0,-0.008239
344.0,-0.008348
346.0,-0.037581
348.0,-0.046148
350.0,-0.074076
352.0,-0.073286
354.0,-0.064791
356.0,-0.070708
358.0,-0.030983
360.0,0.010833
362.0,0.105152
364.0,0.249239
366.0,0.414591
368.0,0.612238
370.0,0.780859
372.0,0.935189
374.0,0.964447
376.0,0.936681
378.0,0.815865
380.0,0.665009
382.0,0.482201
384.0,0.27388
386.0,0.126205
388.0,0.020257
390.0,-0.068083
392.0,-0.113403
394.0,-0.102954
396.0,-0.109668
398.0,-0.088425
400.0,-0.056005
402.0,-0.035902
404.0,-0.04064
406.0,-0.029555
408.0,-0.007525
410.0,-0.007144
412.0,-0.02941
414.0,0.020873
416.0,0.003746
418.0,0.015722
420.0,-0.011907
422.0,0.025974
424.0,-0.001169
426.0,0.007134
428.0,-0.011064
430.0,0.008796
432.0,0.009342
434.0,0.011657
436.0,0.022834
438.0,0.019164
440.0,0.035093
442.0,0.015838
444.0,0.010542
446.0,0.028047
448.0,0.040851
450.0,0.053435
452.0,0.050573
454.0,0.015748
456.0,0.052022
458.0,0.072686
460.0,0.056413
462.0,0.052709
464.0,0.070343
466.0,0.063689
468.0,0.086628
470.0,0.082914
472.0,0.110322
474.0,0.103476
476.0,0.091904
478.0,0.118811
480.0,0.130939
482.0,0.115684
484.0,0.12526
486.0,0.104598
488.0,0.160317
490.0,0.145563
492.0,0.130144
494.0,0.142993
496.0,0.17363
498.0,0.195696
500.0,0.190081
502.0,0.205399
504.0,0.188437
506.0,0.191165
508.0,0.230543
510.0,0.230218
512.0,0.227523
514.0,0.251889
516.0,0.222564
518.0,0.23417
520.0,0.258952
522.0,0.273625
524.0,0.248084
526.0,0.274436
528.0,0.240867
530.0,0.254882
532.0,0.246731
534.0,0.224291
536.0,0.250145
538.0,0.257825
540.0,0.238584
542.0,0.236164
544.0,0.253992
546.0,0.209724
548.0,0.200906
550.0,0.208023
552.0,0.19395
554.0,0.225801
556.0,0.203644
558.0,0.179157
560.0,0.175791
562.0,0.220629
564.0,0.161123
566.0,0.151306
568.0,0.159705
570.0,0.157101
572.0,0.143258
574.0,0.118766
576.0,0.107561
578.0,0.126566
580.0,0.109636
582.0,0.07883
584.0,0.114217
586.0,0.101702
588.0,0.080115
590.0,0.073733
592.0,0.075278
594.0,0.055941
596.0,0.040738
598.0,0.060797
600.0,0.029651
602.0,0.052656
604.0,0.021013
606.0,0.037251
608.0,0.033079
610.0,0.058487
612.0,0.012666
614.0,0.004533
616.0,0.01342
618.0,0.003831
620.0,0.009623
622.0,0.02276
624.0,0.026191
626.0,0.03784
628.0,0.000393
630.0,0.049666
632.0,0.038604
634.0,0.004729
636.0,-0.027562
638.0,0.004696
640.0,0.006261
642.0,-0.029996
644.0,0.004999
646.0,0.00036
648.0,-0.008888
650.0,0.01189
652.0,0.017216
654.0,-0.005466
656.0,0.005001
658.0,-0.008495
660.0,-0.010673
662.0,0.002146
664.0,0.008657
666.0,-0.007771
668.0,-0.032635
670.0,0.009265
672.0,-0.023549
674.0,0.002163
676.0,0.026963
678.0,-2.2e-05
680.0,-0.017656
682.0,-0.02176
684.0,0.017686
686.0,-0.000148
688.0,0.008183
690.0,0.013966
692.0,-0.000677
694.0,-0.004582
696.0,-0.014172
698.0,-0.046207
700.0,-0.022745
702.0,-0.001024
704.0,-0.002613
706.0,0.006066
708.0,-0.00189
710.0,0.002399
712.0,0.011824
714.0,-0.01327
716.0,-0.004303
718.0,-0.024105
720.0,0.014596
722.0,0.000578
724.0,0.007349
726.0,0.023138
728.0,0.016194
730.0,-0.000899
732.0,0.011816
734.0,-0.021475
736.0,0.006509
738.0,0.002084
740.0,-0.024274
742.0,0.02006
744.0,-0.010561
746.0,0.010249
748.0,-0.006299
750.0,0.014903
752.0,0.019684
754.0,-0.012451
756.0,-0.022956
758.0,-0.001971
760.0,0.012734
762.0,-0.00557
764.0,-0.009203
766.0,0.007324
768.0,-0.041423
770.0,-0.009971
772.0,-0.020757
774.0,0.004422
776.0,-0.011044
778.0,-0.016728
780.0,-0.005307
782.0,-0.022026
784.0,-0.000197
786.0,-0.010236
788.0,-0.005661
790.0,-0.010757
792.0,0.013684
794.0,-0.001633
796.0,0.007868
798.0,0.007197
800.0,-0.012092
802.0,0.00855
804.0,0.005237
806.0,0.004705
808.0,-0.00598
810.0,-0.006403
812.0,0.011783
814.0,0.032729
816.0,-0.012452
818.0,0.008017
820.0,-0.005494
822.0,0.011773
824.0,0.006575
826.0,0.015902
828.0,-0.041922
830.0,-0.009016
832.0,-0.014823
834.0,-0.00162
836.0,-0.010858
838.0,-0.009615
840.0,0.010228
842.0,0.028529
844.0,-0.042357
846.0,-0.004657
848.0,0.004681
850.0,7.1e-05
852.0,-0.005177
854.0,-0.020302
856.0,-0.01414
858.0,0.010875
860.0,0.016137
862.0,0.00145
864.0,-0.012542
866.0,0.001436
868.0,-0.003599
870.0,0.008186
872.0,0.001777
874.0,-0.009323
876.0,0.002865
878.0,-0.017684
880.0,0.01231
882.0,0.017749
884.0,-0.017657
886.0,0.006344
888.0,-0.01483
890.0,0.01613
892.0,0.013636
894.0,-0.003351
896.0,0.015062
898.0,-0.006281
900.0,-0.009397
902.0,-0.008201
904.0,-0.001678
906.0,-0.004281
908.0,0.003058
910.0,-0.008264
912.0,0.012708
914.0,0.016896
916.0,-0.00543
918.0,-0.018874
920.0,0.014034
922.0,0.021035
924.0,0.002448
926.0,-0.013277
928.0,0.011357
930.0,0.0318
932.0,-0.017375
934.0,0.020075
936.0,0.010663
938.0,0.005345
940.0,0.028843
942.0,0.005476
944.0,0.033416
946.0,0.05309
948.0,0.040902
950.0,0.030393
952.0,0.022547
954.0,0.036094
956.0,0.034146
958.0,0.092506
960.0,0.071767
962.0,0.067009
964.0,0.070492
966.0,0.081247
968.0,0.099425
970.0,0.092244
972.0,0.143357
974.0,0.113331
976.0,0.11863
978.0,0.140209
980.0,0.161879
982.0,0.163729
984.0,0.139453
986.0,0.1526
988.0,0.152066
990.0,0.157871
992.0,0.152892
994.0,0.133086
996.0,0.125616
998.0,0.143569
1000.0,0.118803
1002.0,0.151914
1004.0,0.12635
1006.0,0.104122
1008.0,0.108031
1010.0,0.098276
1012.0,0.096739
1014.0,0.105613
1016.0,0.06247
1018.0,0.048919
1020.0,0.074964
1022.0,0.060431
1024.0,0.059033
1026.0,0.057092
1028.0,0.041929
1030.0,0.05127
1032.0,0.020934
1034.0,0.030779
1036.0,0.013264
1038.0,0.005107
1040.0,0.028019
1042.0,0.024437
1044.0,-0.015758
1046.0,-0.005657
1048.0,0.013655
1050.0,0.023704
1052.0,-0.003719
1054.0,0.002349
1056.0,-0.017069
1058.0,0.040983
1060.0,0.009779
1062.0,0.015524
1064.0,0.01153
1066.0,0.015299
1068.0,0.010133
1070.0,-0.004245
1072.0,0.011762
1074.0,0.001646
1076.0,0.019797
1078.0,-0.010771
1080.0,-0.007922
1082.0,0.010064
1084.0,0.019303
1086.0,0.002257
1088.0,-0.01063
1090.0,-0.001742
1092.0,-0.007443
1094.0,0.028474
1096.0,0.013496
1098.0,0.018978
1100.0,0.004531
1102.0,-0.008322
1104.0,0.017603
1106.0,0.024812
1108.0,0.008731
1110.0,-0.000363
1112.0,0.016215
1114.0,-0.005566
1116.0,0.011468
1118.0,-0.010674
1120.0,-0.014555
1122.0,0.008497
1124.0,0.005069
1126.0,0.028565
1128.0,-0.004202
1130.0,0.000352
1132.0,-0.017099
1134.0,-0.028039
1136.0,-0.026712
1138.0,0.006947
1140.0,-0.01765
1142.0,0.016902
1144.0,0.021334
1146.0,-0.004281
1148.0,0.024876
1150.0,0.003408
1152.0,0.016874
1154.0,-0.003386
1156.0,0.014387
1158.0,-0.01415
1160.0,0.009338
1162.0,-0.006895
1164.0,-0.001977
1166.0,0.009425
1168.0,0.002459
1170.0,-0.001434
1172.0,0.010194
1174.0,0.010508
1176.0,-0.023855
1178.0,0.002601
1180.0,-0.00013
1182.0,-0.028146
1184.0,-0.020403
1186.0,-0.057962
1188.0,-0.030211
1190.0,-0.069034
1192.0,-0.077178
1194.0,-0.060855
1196.0,-0.069903
1198.0,-0.026265
1200.0,0.011249
1202.0,0.117234
1204.0,0.242623
1206.0,0.430768
1208.0,0.634889
1210.0,0.795635
1212.0,0.933363
1214.0,0.960054
1216.0,0.931937
1218.0,0.828281
1220.0,0.677125
1222.0,0.482075
1224.0,0.290349
1226.0,0.141741
1228.0,0.011046
1230.0,-0.065682
1232.0,-0.089068
1234.0,-0.133192
1236.0,-0.118224
1238.0,-0.081692
1240.0,-0.083768
1242.0,-0.053255
1244.0,-0.053648
1246.0,0.000429
1248.0,-0.051075
1250.0,-0.026388
1252.0,-0.020066
1254.0,0.023162
1256.0,0.006016
1258.0,-0.00206
1260.0,-0.016568
1262.0,0.008754
1264.0,0.005605
1266.0,-0.005867
1268.0,-0.01715
1270.0,-0.01054
1272.0,0.010076
1274.0,0.01252
1276.0,0.010049
1278.0,0.007902
1280.0,-0.014993
1282.0,0.013782
1284.0,-0.000764
1286.0,0.017196
1288.0,0.025576
1290.0,0.01069
1292.0,0.007916
1294.0,0.04082
1296.0,0.034077
1298.0,0.022376
1300.0,-0.009704
1302.0,0.038198
1304.0,0.052272
1306.0,0.063831
1308.0,0.041289
1310.0,0.046541
1312.0,0.054552
1314.0,0.079053
1316.0,0.054428
1318.0,0.076189
1320.0,0.070091
1322.0,0.094349
1324.0,0.07358
1326.0,0.10934
1328.0,0.103243
1330.0,0.114503
1332.0,0.133069
1334.0,0.14978
1336.0,0.114698
1338.0,0.16279
1340.0,0.163713
1342.0,0.158505
1344.0,0.191511
1346.0,0.180706
1348.0,0.20456
1350.0,0.183363
1352.0,0.186121
1354.0,0.224085
1356.0,0.244458
1358.0,0.227421
1360.0,0.236806
1362.0,0.221417
1364.0,0.213265
1366.0,0.233865
1368.0,0.263337
1370.0,0.215943
1372.0,0.238855
1374.0,0.219401
1376.0,0.250964
1378.0,0.26305
1380.0,0.231264
1382.0,0.243105
1384.0,0.26785
1386.0,0.244741
1388.0,0.224985
1390.0,0.220755
1392.0,0.206647
1394.0,0.244302
1396.0,0.216846
1398.0,0.238665
1400.0,0.230345
1402.0,0.201481
1404.0,0.19715
1406.0,0.210126
1408.0,0.193797
1410.0,0.188456
1412.0,0.152433
1414.0,0.183168
1416.0,0.149039
1418.0,0.120538
1420.0,0.137723
1422.0,0.145726
1424.0,0.163332
1426.0,0.118853
1428.0,0.097193
1430.0,0.141837
1432.0,0.105412
1434.0,0.092315
1436.0,0.073536
1438.0,0.068296
1440.0,0.099467
1442.0,0.067419
1444.0,0.057876
1446.0,0.053033
1448.0,0.079218
1450.0,0.042158
1452.0,0.056
1454.0,0.046425
1456.0,0.042148
1458.0,0.021793
1460.0,0.04148
1462.0,0.052631
1464.0,0.024857
1466.0,0.009212
1468.0,0.001224
1470.0,0.021249
1472.0,0.012297
1474.0,0.012983
1476.0,0.01307
1478.0,-0.010738
1480.0,0.02177
1482.0,0.012351
1484.0,0.006633
1486.0,0.010261
1488.0,0.019813
1490.0,0.005957
1492.0,-0.008276
1494.0,0.021372
1496.0,-0.003148
1498.0,-0.007993
1500.0,-0.020946
1502.0,0.002249
1504.0,-0.013892
1506.0,-0.006232
1508.0,0.008063
1510.0,0.001623
1512.0,0.016196
1514.0,0.005381
1516.0,-0.005381
1518.0,-0.004376
1520.0,-0.007133
1522.0,0.010095
1524.0,0.000655
1526.0,-0.005887
1528.0,0.012904
1530.0,0.001635
1532.0,-0.006826
1534.0,-0.022556
1536.0,0.006669
1538.0,0.003668
1540.0,0.000841
1542.0,-0.006453
1544.0,-0.012455
1546.0,-0.003362
1548.0,0.003502
1550.0,-0.001893
1552.0,-0.00215
1554.0,-0.007006
1556.0,0.005097
1558.0,0.003515
1560.0,-0.011278
1562.0,0.011411
1564.0,0.011876
1566.0,0.012208
1568.0,-0.001956
1570.0,-0.00291
1572.0,-0.017386
1574.0,0.011321
1576.0,-0.032036
1578.0,-0.005863
1580.0,-0.005097
1582.0,0.012844
1584.0,-9e-06
1586.0,-0.014467
1588.0,-0.021401
1590.0,-0.010937
1592.0,0.001599
1594.0,0.000826
1596.0,-0.002964
1598.0,-0.010265
1600.0,-0.003152
1602.0,0.014966
1604.0,-0.016506
1606.0,0.000505
1608.0,0.024279
1610.0,0.008315
1612.0,-0.006839
1614.0,0.009915
1616.0,-0.01128
1618.0,0.000106
1620.0,0.023311
1622.0,0.028412
1624.0,-0.025629
1626.0,0.010501
1628.0,0.029229
1630.0,-0.00818
1632.0,0.003885
1634.0,0.022609
1636.0,-0.007388
1638.0,0.00678
1640.0,-0.000888
1642.0,-0.028881
1644.0,0.005192
1646.0,-0.002762
1648.0,0.013922
1650.0,0.031401
1652.0,0.010258
1654.0,-0.005511
1656.0,0.006752
1658.0,0.003027
1660.0,0.015345
1662.0,-0.021582
1664.0,-0.017495
1666.0,-0.030678
1668.0,0.009106
1670.0,-0.000285
1672.0,-0.009602
1674.0,-0.010879
1676.0,-0.008583
1678.0,-0.013917
1680.0,-0.004821
1682.0,-0.007413
1684.0,0.02085
1686.0,0.00485
1688.0,-0.012278
1690.0,-0.008758
1692.0,0.017984
1694.0,0.006786
1696.0,0.004428
1698.0,0.01081
1700.0,0.023792
1702.0,-0.01826
1704.0,-0.011185
1706.0,-0.026109
1708.0,0.007423
1710.0,-0.005682
1712.0,-0.010078
1714.0,-0.011433
1716.0,0.01037
1718.0,-0.002131
1720.0,-0.007958
1722.0,0.01883
1724.0,-0.015691
1726.0,-0.018966
1728.0,0.03892
1730.0,-0.005516
1732.0,-0.008152
1734.0,-0.01091
1736.0,-0.002052
1738.0,0.011743
1740.0,0.011305
1742.0,0.008165
1744.0,-0.004174
1746.0,-0.022343
1748.0,0.004255
1750.0,0.022797
1752.0,0.016061
1754.0,-0.002493
1756.0,0.01208
1758.0,-0.005724
1760.0,-0.000747
1762.0,-0.018407
1764.0,-0.004584
1766.0,0.002306
1768.0,-0.002272
1770.0,0.011899
1772.0,0.028716
1774.0,0.020429
1776.0,-0.003788
1778.0,-0.009952
1780.0,-0.008485
1782.0,-0.013002
1784.0,0.002622
1786.0,0.008977
1788.0,0.006076
1790.0,0.007047
1792.0,0.007492
1794.0,0.004305
1796.0,-0.003467
1798.0,0.035165
1800.0,0.026908
1802.0,-0.000227
1804.0,0.00235
1806.0,0.010024
1808.0,0.022583
1810.0,0.044646
1812.0,0.045073
1814.0,0.050384
1816.0,0.055633
1818.0,0.061283
1820.0,0.061516
1822.0,0.063445
1824.0,0.061347
1826.0,0.043778
1828.0,0.075034
1830.0,0.111204
1832.0,0.083361
1834.0,0.089354
1836.0,0.121175
1838.0,0.11409
1840.0,0.112334
1842.0,0.149133
1844.0,0.140841
1846.0,0.14793
1848.0,0.132473
1850.0,0.151979
1852.0,0.152893
1854.0,0.160713
1856.0,0.16716
1858.0,0.166717
1860.0,0.151327
1862.0,0.157115
1864.0,0.126698
1866.0,0.149782
1868.0,0.145868
1870.0,0.12455
1872.0,0.112954
1874.0,0.117353
1876.0,0.093307
1878.0,0.109605
1880.0,0.101709
1882.0,0.075772
1884.0,0.083438
1886.0,0.091565
1888.0,0.084492
1890.0,0.076964
1892.0,0.053111
1894.0,0.044207
1896.0,0.037716
1898.0,0.047182
1900.0,0.068708
1902.0,0.050073
1904.0,0.048779
1906.0,0.041651
1908.0,-0.005981
1910.0,0.012384
1912.0,0.006441
1914.0,0.029536
1916.0,0.034275
1918.0,-0.002586
1920.0,0.006616
1922.0,0.013267
1924.0,-0.003359
1926.0,-0.006242
1928.0,-0.00762
1930.0,0.015288
1932.0,-0.01205
1934.0,0.018272
1936.0,0.002268
1938.0,0.012021
1940.0,0.023748
1942.0,-0.009597
1944.0,-0.011919
1946.0,0.00665
1948.0,-0.015288
1950.0,-0.010812
1952.0,-0.0016
1954.0,0.002428
1956.0,-0.018596
1958.0,-0.005692
1960.0,0.008765
1962.0,0.020165
1964.0,-0.029376
1966.0,0.019567
1968.0,0.013206
1970.0,-0.016236
1972.0,-0.021998
1974.0,0.006248
1976.0,-0.006274
1978.0,0.002037
1980.0,0.012874
1982.0,-0.005563
1984.0,0.002428
1986.0,0.007104
1988.0,0.013288
1990.0,0.026328
1992.0,0.025418
1994.0,0.003603
1996.0,-0.003528
1998.0,0.035451
2000.0,0.009568
2002.0,0.006384
2004.0,-0.016438
2006.0,0.011628
2008.0,-0.011596
2010.0,-0.006833
2012.0,-0.019927
2014.0,-0.007739
2016.0,0.000933
2018.0,-0.022387
2020.0,-0.013353
2022.0,-0.00116
2024.0,-0.018845
2026.0,-0.018688
2028.0,-0.012424
2030.0,-0.021035
2032.0,0.009079
2034.0,-0.01506
2036.0,0.010945
2038.0,0.012628
2040.0,-0.020306
2042.0,-0.004042
2044.0,-0.015535
2046.0,-0.031175
2048.0,-0.027535
2050.0,-0.037147
2052.0,-0.036075
2054.0,-0.045202
2056.0,-0.088755
2058.0,-0.083942
2060.0,-0.063458
2062.0,-0.027858
2064.0,-0.028284
2066.0,0.116411
2068.0,0.22304
2070.0,0.412049
2072.0,0.566906
2074.0,0.739697
2076.0,0.894322
2078.0,0.985709
2080.0,0.959006
2082.0,0.830688
2084.0,0.720117
2086.0,0.496779
2088.0,0.316213
2090.0,0.147347
2092.0,0.008857
2094.0,-0.069618
2096.0,-0.115714
2098.0,-0.130626
2100.0,-0.12182
2102.0,-0.112561
2104.0,-0.109832
2106.0,-0.068925
2108.0,-0.031962
2110.0,-0.016207
2112.0,-0.016317
2114.0,-0.00065
2116.0,0.008897
2118.0,0.019306
2120.0,0.026362
2122.0,-0.002622
2124.0,-0.001018
2126.0,0.02586
2128.0,0.027861
2130.0,0.028264
2132.0,-0.029221
2134.0,0.003505
2136.0,-0.04106
2138.0,0.019808
2140.0,0.010907
2142.0,0.012206
2144.0,0.010856
2146.0,0.034131
2148.0,0.012015
2150.0,0.033922
2152.0,0.028939
2154.0,0.028403
2156.0,0.032624
2158.0,0.030209
2160.0,0.015246
2162.0,0.045748
2164.0,0.049315
2166.0,0.040332
2168.0,0.057599
2170.0,0.064546
2172.0,0.036542
2174.0,0.058616
2176.0,0.059362
2178.0,0.057971
2180.0,0.082192
2182.0,0.070779
2184.0,0.083231
2186.0,0.099984
2188.0,0.108327
2190.0,0.114878
2192.0,0.150716
2194.0,0.116957
2196.0,0.135692
2198.0,0.121372
2200.0,0.154258
2202.0,0.17194
2204.0,0.180431
2206.0,0.160216
2208.0,0.172995
2210.0,0.203417
2212.0,0.190194
2214.0,0.212862
2216.0,0.190515
2218.0,0.232159
2220.0,0.232772
2222.0,0.229885
2224.0,0.216076
2226.0,0.23032
2228.0,0.239145
2230.0,0.244458
2232.0,0.242007
2234.0,0.242795
2236.0,0.250852
2238.0,0.27018
2240.0,0.219787
2242.0,0.229358
2244.0,0.226167
2246.0,0.237816
2248.0,0.220184
2250.0,0.252151
2252.0,0.242275
2254.0,0.233457
2256.0,0.222932
2258.0,0.230894
2260.0,0.226131
2262.0,0.222892
2264.0,0.201085
2266.0,0.215486
2268.0,0.177128
2270.0,0.211036
2272.0,0.139051
2274.0,0.169018
2276.0,0.152467
2278.0,0.174825
2280.0,0.13312
2282.0,0.175125
2284.0,0.117046
2286.0,0.163115
2288.0,0.13197
2290.0,0.118393
2292.0,0.1173
2294.0,0.136657
2296.0,0.110367
2298.0,0.056891
2300.0,0.101961
2302.0,0.081429
2304.0,0.047862
2306.0,0.077959
2308.0,0.043095
2310.0,0.058969
2312.0,0.055018
2314.0,0.037342
2316.0,0.052607
2318.0,0.023666
2320.0,0.038222
2322.0,0.023766
2324.0,0.026108
2326.0,0.054804
2328.0,0.024985
2330.0,0.004556
2332.0,0.016879
2334.0,0.005065
2336.0,0.015153
2338.0,0.015509
2340.0,0.012841
2342.0,0.011458
2344.0,0.000808
2346.0,0.014614
2348.0,0.022755
2350.0,-0.003287
2352.0,0.004368
2354.0,0.005466
2356.0,0.022754
2358.0,0.019603
2360.0,-0.008008
2362.0,0.003616
2364.0,-0.020238
2366.0,-0.012624
2368.0,0.001812
2370.0,0.0108
2372.0,0.015463
2374.0,-0.00369
2376.0,-0.019473
2378.0,0.006646
2380.0,-0.002013
2382.0,0.006848
2384.0,0.00281
2386.0,0.011077
2388.0,0.010103
2390.0,0.01289
2392.0,-0.006692
2394.0,0.015094
2396.0,-0.007412
2398.0,0.001383
2400.0,0.027998
2402.0,0.005425
2404.0,-0.017432
2406.0,0.022405
2408.0,0.015041
2410.0,0.017139
2412.0,0.002984
2414.0,0.005208
2416.0,-0.003478
2418.0,-0.010486
2420.0,0.022961
2422.0,-0.005517
2424.0,-0.007204
2426.0,-0.006647
2428.0,0.027939
2430.0,0.013175
2432.0,-0.005516
2434.0,-0.000682
2436.0,0.007658
2438.0,0.013178
2440.0,-0.024156
2442.0,0.013558
2444.0,-0.00327
2446.0,-0.01029
2448.0,-0.005854
2450.0,0.011879
2452.0,0.026377
2454.0,0.002219
2456.0,0.008354
2458.0,-0.01221
2460.0,0.00737
2462.0,0.01234
2464.0,-0.02232
2466.0,-0.007694
2468.0,0.011862
2470.0,-0.026383
2472.0,-0.005608
2474.0,0.00901
2476.0,-0.025358
2478.0,-0.00595
2480.0,0.000823
2482.0,0.013356
2484.0,-0.019181
2486.0,0.016643
2488.0,0.004585
2490.0,0.017953
2492.0,0.017448
2494.0,0.005112
2496.0,0.007286
2498.0,-0.026092
2500.0,-0.020252
2502.0,-0.01508
2504.0,-0.00522
2506.0,0.013999
2508.0,-0.026751
2510.0,-0.004799
2512.0,-0.019818
2514.0,-0.023366
2516.0,0.022154
2518.0,0.001478
2520.0,0.024527
2522.0,0.017762
2524.0,-0.013821
2526.0,-0.02782
2528.0,0.031051
2530.0,-0.006075
2532.0,-0.017168
2534.0,0.010368
2536.0,0.002047
2538.0,-0.010071
2540.0,-0.005189
2542.0,0.00242
2544.0,0.001109
2546.0,0.011333
2548.0,-0.005302
2550.0,-0.005147
2552.0,0.009009
2554.0,0.004694
2556.0,0.016414
2558.0,-0.003749
2560.0,-0.001475
2562.0,-0.01734
2564.0,0.022488
2566.0,-0.020907
2568.0,0.003031
2570.0,-0.013379
2572.0,0.005061
2574.0,0.011166
2576.0,-0.024589
2578.0,-0.003164
2580.0,-0.02635
2582.0,0.021064
2584.0,-0.006647
2586.0,-0.023647
2588.0,-0.010528
2590.0,0.019671
2592.0,0.022315
2594.0,0.019062
2596.0,-0.011762
2598.0,-0.002279
2600.0,0.024529
2602.0,-0.010963
2604.0,-0.005005
2606.0,-0.014286
2608.0,-0.017431
2610.0,0.018135
2612.0,0.009518
2614.0,0.006823
2616.0,0.008802
2618.0,0.015465
2620.0,0.02285
2622.0,0.000152
2624.0,-0.004767
2626.0,-0.014902
2628.0,0.016831
2630.0,-0.006948
2632.0,-0.021415
2634.0,-0.002741
2636.0,0.002013
2638.0,0.014579
2640.0,0.017692
2642.0,-0.007663
2644.0,-0.007895
2646.0,0.000158
2648.0,-0.011931
2650.0,0.005971
2652.0,0.016154
2654.0,0.011773
2656.0,-0.010877
2658.0,-0.002034
2660.0,0.038017
2662.0,0.006791
2664.0,0.036734
2666.0,0.03922
2668.0,0.029422
2670.0,0.024241
2672.0,0.04772
2674.0,0.037049
2676.0,0.053864
2678.0,0.064599
2680.0,0.05906
2682.0,0.073452
2684.0,0.079437
2686.0,0.072825
2688.0,0.095786
2690.0,0.096271
2692.0,0.085445
2694.0,0.114406
2696.0,0.121474
2698.0,0.122366
2700.0,0.105612
2702.0,0.152562
2704.0,0.154764
2706.0,0.156997
2708.0,0.153927
2710.0,0.13107
2712.0,0.151669
2714.0,0.134852
2716.0,0.179578
2718.0,0.136051
2720.0,0.150119
2722.0,0.112285
2724.0,0.112647
2726.0,0.11646
2728.0,0.128707
2730.0,0.119648
2732.0,0.108728
2734.0,0.069382
2736.0,0.106867
2738.0,0.068719
2740.0,0.099662
2742.0,0.096423
2744.0,0.074074
2746.0,0.070066
2748.0,0.030234
2750.0,0.082172
2752.0,0.04144
2754.0,0.048312
2756.0,0.016017
2758.0,0.023916
2760.0,0.003505
2762.0,0.014525
2764.0,0.015547
2766.0,0.016696
2768.0,0.031665
2770.0,0.016104
2772.0,0.010979
2774.0,0.00657
2776.0,0.035027
2778.0,-0.004751
2780.0,0.020981
2782.0,-0.026901
2784.0,-0.011172
2786.0,0.007728
2788.0,-0.001187
2790.0,0.046065
2792.0,0.039429
2794.0,-0.022222
2796.0,-0.015631
2798.0,-0.001804
2800.0,0.026349
2802.0,0.017235
2804.0,0.005047
2806.0,-0.021115
2808.0,-0.012589
2810.0,-0.040201
2812.0,-0.022983
2814.0,0.006459
2816.0,0.011902
2818.0,-0.019497
2820.0,0.001684
2822.0,0.02446
2824.0,0.002517
2826.0,-0.004526
2828.0,0.00925
2830.0,0.007988
2832.0,0.001285
2834.0,-0.007955
2836.0,-0.006289
2838.0,0.001432
2840.0,-0.008162
2842.0,0.020074
2844.0,0.013472
2846.0,0.016393
2848.0,0.030494
2850.0,0.023766
2852.0,0.021351
2854.0,0.005642
2856.0,-0.00282
2858.0,0.034586
2860.0,-0.010036
2862.0,-0.009224
2864.0,-0.012975
2866.0,0.003298
2868.0,0.00634
2870.0,0.015512
2872.0,-0.003312
2874.0,-0.02595
2876.0,0.004838
2878.0,0.014666
2880.0,0.000523
2882.0,-0.001984
2884.0,0.008387
2886.0,0.021276
2888.0,-0.001563
2890.0,-0.022603
2892.0,-0.011159
2894.0,-0.007655
2896.0,-0.036273
2898.0,-0.003987
2900.0,-0.035907
2902.0,-0.028259
2904.0,-0.046361
2906.0,-0.067525
2908.0,-0.049112
2910.0,-0.085071
2912.0,-0.075939
2914.0,-0.028875
2916.0,0.042175
2918.0,0.12966
2920.0,0.254357
2922.0,0.451289
2924.0,0.635917
2926.0,0.829499
2928.0,0.919544
2930.0,0.97647
2932.0,0.928965
2934.0,0.800319
2936.0,0.653774
2938.0,0.472515
2940.0,0.259468
2942.0,0.109128
2944.0,-0.013636
2946.0,-0.050326
2948.0,-0.119147
2950.0,-0.113284
2952.0,-0.129052
2954.0,-0.098487
2956.0,-0.088083
2958.0,-0.092931
2960.0,-0.038189
2962.0,-0.016926
2964.0,-0.045557
2966.0,-0.009796
2968.0,-0.009134
2970.0,-0.016044
2972.0,-0.001937
2974.0,-0.026148
2976.0,0.007545
2978.0,0.022319
2980.0,-0.013648
2982.0,0.005102
2984.0,0.028354
2986.0,0.009805
2988.0,0.001303
2990.0,-0.003337
2992.0,0.014369
2994.0,0.011242
2996.0,0.024399
2998.0,-0.006011
3000.0,0.035003
3002.0,0.015046
3004.0,0.0332
3006.0,0.015407
3008.0,0.009689
3010.0,0.02381
3012.0,0.021408
3014.0,0.033773
3016.0,0.053047
3018.0,0.06372
3020.0,0.055079
3022.0,0.048685
3024.0,0.055071
3026.0,0.076052
3028.0,0.089815
3030.0,0.073797
3032.0,0.082892
3034.0,0.07988
3036.0,0.10087
3038.0,0.11895
3040.0,0.068036
3042.0,0.122651
3044.0,0.117902
3046.0,0.098703
3048.0,0.145871
3050.0,0.147418
3052.0,0.16191
3054.0,0.143464
3056.0,0.203532
3058.0,0.180549
3060.0,0.181007
3062.0,0.216088
3064.0,0.209846
3066.0,0.219112
3068.0,0.230302
3070.0,0.187651
3072.0,0.249233
3074.0,0.224009
3076.0,0.238051
3078.0,0.25165
3080.0,0.230624
3082.0,0.249013
3084.0,0.258037
3086.0,0.247712
3088.0,0.256888
3090.0,0.225883
3092.0,0.231964
3094.0,0.231839
3096.0,0.253281
3098.0,0.301869
3100.0,0.247081
3102.0,0.237756
3104.0,0.235288
3106.0,0.246757
3108.0,0.237972
3110.0,0.204855
3112.0,0.231678
3114.0,0.210042
3116.0,0.216318
3118.0,0.167374
3120.0,0.167102
3122.0,0.192221
3124.0,0.148928
3126.0,0.174324
3128.0,0.165999
3130.0,0.155512
3132.0,0.151052
3134.0,0.142123
3136.0,0.137337
3138.0,0.117115
3140.0,0.115593
3142.0,0.152731
3144.0,0.118894
3146.0,0.104278
3148.0,0.094458
3150.0,0.071378
3152.0,0.079665
3154.0,0.066793
3156.0,0.079195
3158.0,0.046061
3160.0,0.019406
3162.0,0.041791
3164.0,0.056272
3166.0,0.078604
3168.0,0.053274
3170.0,0.019651
3172.0,0.027737
3174.0,0.0137
3176.0,0.022343
3178.0,0.009091
3180.0,-0.004486
3182.0,0.024672
3184.0,0.01896
3186.0,0.011667
3188.0,0.017795
3190.0,0.041632
3192.0,0.011565
3194.0,0.002946
3196.0,0.020552
3198.0,-0.018016
3200.0,0.017072
3202.0,-0.0066
3204.0,-0.007894
3206.0,0.005421
3208.0,0.028342
3210.0,-0.008376
3212.0,0.016698
3214.0,0.007734
3216.0,-0.019097
3218.0,0.01525
3220.0,-0.011112
3222.0,-0.020965
3224.0,-0.010951
3226.0,-0.010129
3228.0,0.009535
3230.0,-0.010429
3232.0,0.022863
3234.0,0.003703
3236.0,-0.010457
3238.0,-0.01225
3240.0,0.003639
3242.0,-0.030261
3244.0,-0.0325
3246.0,-0.013148
3248.0,0.009547
3250.0,0.002771
3252.0,0.000394
3254.0,-0.003153
3256.0,-0.032618
3258.0,-0.004841
3260.0,-0.026597
3262.0,0.012549
3264.0,-0.000112
3266.0,-0.001333
3268.0,0.005995
3270.0,0.004852
3272.0,0.003494
3274.0,0.005225
3276.0,-0.008831
3278.0,-0.020027
3280.0,0.005125
3282.0,0.021697
3284.0,0.015174
3286.0,-0.003212
3288.0,0.009184
3290.0,-0.0066
3292.0,0.005768
3294.0,-0.009117
3296.0,0.002107
3298.0,0.03004
3300.0,0.011587
3302.0,0.022479
3304.0,-0.011602
3306.0,-0.010291
3308.0,-0.000593
3310.0,0.008351
3312.0,-0.003128
3314.0,0.0152
3316.0,-0.008258
3318.0,0.020402
3320.0,0.014525
3322.0,-0.016737
3324.0,0.008745
3326.0,-0.00336
3328.0,0.015282
3330.0,-0.008063
3332.0,0.004667
3334.0,0.008186
3336.0,-0.041308
3338.0,-0.028204
3340.0,0.001918
3342.0,-0.001896
3344.0,0.015236
3346.0,0.00339
3348.0,-0.019064
3350.0,0.004924
3352.0,-0.011257
3354.0,-0.003444
3356.0,-0.007636
3358.0,0.005228
3360.0,-0.021328
3362.0,-0.016804
3364.0,-0.033365
3366.0,0.032159
3368.0,-0.014984
3370.0,-0.012958
3372.0,-0.017324
3374.0,-0.009667
3376.0,-0.006579
3378.0,0.009218
3380.0,0.002639
3382.0,0.004924
3384.0,-0.008866
3386.0,-0.001099
3388.0,0.018263
3390.0,-0.000344
3392.0,0.004584
3394.0,-0.030448
3396.0,0.007747
3398.0,0.003867
3400.0,0.019313
3402.0,-0.041292
3404.0,0.00033
3406.0,-0.00193
3408.0,0.001143
3410.0,-0.009586
3412.0,0.002972
3414.0,0.010332
3416.0,0.000454
3418.0,-0.004632
3420.0,-0.003434
3422.0,-0.006072
3424.0,0.000337
3426.0,-0.01104
3428.0,-0.03015
3430.0,0.02004
3432.0,-0.026674
3434.0,-0.002115
3436.0,-0.019929
3438.0,-0.004669
3440.0,-0.014865
3442.0,-0.001048
3444.0,-0.01303
3446.0,-0.019879
3448.0,0.004197
3450.0,0.019561
3452.0,0.00473
3454.0,0.001163
3456.0,-0.016273
3458.0,-0.001741
3460.0,0.0062
3462.0,-0.010265
3464.0,0.013002
3466.0,-0.001094
3468.0,0.004837
3470.0,-0.007895
3472.0,-0.007746
3474.0,0.002961
3476.0,0.005506
3478.0,0.005038
3480.0,-0.0153
3482.0,-0.010882
3484.0,2.8e-05
3486.0,-0.027234
3488.0,0.01664
3490.0,0.006149
3492.0,0.002546
3494.0,-0.008107
3496.0,0.015709
3498.0,0.000271
3500.0,0.034022
3502.0,0.012794
3504.0,-0.013853
3506.0,0.02132
3508.0,0.004686
3510.0,0.007311
3512.0,0.01438
3514.0,0.019306
3516.0,0.028706
3518.0,0.040439
3520.0,0.040324
3522.0,0.02758
3524.0,0.02354
3526.0,0.037477
3528.0,0.061137
3530.0,0.07525
3532.0,0.096026
3534.0,0.055863
3536.0,0.084454
3538.0,0.087114
3540.0,0.091795
3542.0,0.107073
3544.0,0.108251
3546.0,0.114628
3548.0,0.115162
3550.0,0.136514
3552.0,0.151501
3554.0,0.164551
3556.0,0.135746
3558.0,0.130547
3560.0,0.144234
3562.0,0.13651
3564.0,0.16438
3566.0,0.135591
3568.0,0.146994
3570.0,0.122826
3572.0,0.133984
3574.0,0.137569
3576.0,0.152413
3578.0,0.113251
3580.0,0.122853
3582.0,0.079403
3584.0,0.085439
3586.0,0.084117
3588.0,0.081557
3590.0,0.088221
3592.0,0.084049
3594.0,0.043442
3596.0,0.068762
3598.0,0.037642
3600.0,0.075808
3602.0,0.047275
3604.0,0.039579
3606.0,0.029772
3608.0,0.027496
3610.0,0.024026
3612.0,0.010036
3614.0,0.028407
3616.0,0.018445
3618.0,0.023175
3620.0,0.008884
3622.0,0.018161
3624.0,-0.004967
3626.0,0.058514
3628.0,-0.006721
3630.0,-0.003694
3632.0,0.016648
3634.0,0.020066
3636.0,-0.01089
3638.0,-0.024323
3640.0,-0.020697
3642.0,-0.014903
3644.0,-0.011994
3646.0,-0.002867
3648.0,0.01491
3650.0,0.015556
3652.0,-0.009892
3654.0,0.0073
3656.0,0.012386
3658.0,0.020181
3660.0,-0.003299
3662.0,-0.012082
3664.0,0.010288
3666.0,0.021759
3668.0,-0.008842
3670.0,0.028244
3672.0,0.024793
3674.0,-0.004934
3676.0,-0.024522
3678.0,-0.009951
3680.0,-0.006282
3682.0,0.00697
3684.0,-0.026063
3686.0,0.035458
3688.0,0.034099
3690.0,-0.011864
3692.0,-0.02894
3694.0,-0.003558
3696.0,0.005338
3698.0,0.019169
3700.0,0.009647
3702.0,-0.004061
3704.0,-0.030562
3706.0,0.006616
3708.0,0.011597
3710.0,-0.005703
3712.0,0.00307
3714.0,0.001995
3716.0,-0.00471
3718.0,-0.018404
3720.0,0.004068
3722.0,-0.02234
3724.0,0.019955
3726.0,-0.014551
3728.0,0.006311
3730.0,-0.012039
3732.0,0.004603
3734.0,-0.004252
3736.0,0.006898
3738.0,-0.012963
3740.0,-0.025576
3742.0,-0.005382
3744.0,-0.006538
3746.0,-0.024057
3748.0,-0.012331
3750.0,-0.02804
3752.0,-0.002994
3754.0,-0.013382
3756.0,-0.012461
3758.0,0.019071
3760.0,-0.027568
3762.0,-0.036804
3764.0,-0.046964
3766.0,-0.071851
3768.0,-0.08809
3770.0,-0.066765
3772.0,-0.050108
3774.0,-0.072108
3776.0,0.037289
3778.0,0.139977
3780.0,0.280388
3782.0,0.481782
3784.0,0.640664
3786.0,0.829393
3788.0,0.92606
3790.0,0.970194
3792.0,0.943447
3794.0,0.800737
3796.0,0.636618
3798.0,0.429822
3800.0,0.250207
3802.0,0.121737
3804.0,0.006743
3806.0,-0.092379
3808.0,-0.132018
3810.0,-0.088901
3812.0,-0.131498
3814.0,-0.11888
3816.0,-0.077208
3818.0,-0.075114
3820.0,-0.0499
3822.0,-0.015736
3824.0,-0.002905
3826.0,-0.013157
3828.0,0.014816
3830.0,-0.004493
3832.0,-0.004177
3834.0,0.000399
3836.0,-0.003384
3838.0,0.009704
3840.0,0.006598
3842.0,-0.008675
3844.0,0.006292
3846.0,-0.003809
3848.0,-0.003535
3850.0,0.003951
3852.0,0.022337
3854.0,0.012354
3856.0,0.028503
3858.0,0.034336
3860.0,0.01197
3862.0,0.005145
3864.0,0.00433
3866.0,0.022421
3868.0,0.033538
3870.0,0.046812
3872.0,0.006217
3874.0,0.04265
3876.0,0.048094
3878.0,0.072065
3880.0,0.042077
3882.0,0.042808
3884.0,0.024794
3886.0,0.040475
3888.0,0.040435
3890.0,0.046971
3892.0,0.054037
3894.0,0.050212
3896.0,0.077766
3898.0,0.091149
3900.0,0.103226
3902.0,0.097052
3904.0,0.121218
3906.0,0.12844
3908.0,0.096932
3910.0,0.122982
3912.0,0.115827
3914.0,0.127442
3916.0,0.152489
3918.0,0.155456
3920.0,0.186863
3922.0,0.203119
3924.0,0.186097
3926.0,0.184147
3928.0,0.191855
3930.0,0.200644
3932.0,0.215886
3934.0,0.20244
3936.0,0.22798
3938.0,0.220932
3940.0,0.245374
3942.0,0.254372
3944.0,0.263904
3946.0,0.238872
3948.0,0.223761
3950.0,0.220943
3952.0,0.24343
3954.0,0.22754
3956.0,0.224453
3958.0,0.243589
3960.0,0.233195
3962.0,0.256789
3964.0,0.273393
3966.0,0.238212
3968.0,0.243013
3970.0,0.21082
3972.0,0.232836
3974.0,0.214753
3976.0,0.203477
3978.0,0.186319
3980.0,0.232136
3982.0,0.177502
3984.0,0.176842
3986.0,0.188135
3988.0,0.185134
3990.0,0.177841
3992.0,0.167608
3994.0,0.145041
3996.0,0.162353
3998.0,0.146141
4000.0,0.113919
4002.0,0.152243
4004.0,0.115707
4006.0,0.127818
4008.0,0.084693
4010.0,0.081777
4012.0,0.08434
4014.0,0.07611
4016.0,0.095463
4018.0,0.049961
4020.0,0.071089
4022.0,0.047989
4024.0,0.06581
4026.0,0.056311
4028.0,0.040347
4030.0,0.077652
4032.0,0.0396
4034.0,0.052968
4036.0,0.013107
4038.0,0.027922
4040.0,0.028119
4042.0,0.026109
4044.0,0.016328
4046.0,0.00674
4048.0,-0.029351
4050.0,0.006604
4052.0,-0.000389
4054.0,0.007956
4056.0,0.023252
4058.0,0.042349
4060.0,0.015919
4062.0,0.022169
4064.0,0.015451
4066.0,0.016105
4068.0,0.013338
4070.0,-7.8e-05
4072.0,-0.001571
4074.0,0.007785
4076.0,0.029391
4078.0,0.013775
4080.0,0.025874
4082.0,-0.017987
4084.0,0.005196
4086.0,0.006999
4088.0,0.008657
4090.0,-0.019922
4092.0,-0.027104
4094.0,-0.031424
4096.0,-0.005636
4098.0,0.035453
4100.0,0.003481
4102.0,-0.018007
4104.0,0.005205
4106.0,-0.004444
4108.0,0.002618
4110.0,-0.006746
4112.0,-0.019409
4114.0,-0.00797
4116.0,0.010713
4118.0,0.004565
4120.0,0.018335
4122.0,-0.016048
4124.0,0.015768
4126.0,0.000977
4128.0,0.002984
4130.0,0.018816
4132.0,-0.001822
4134.0,0.003991
4136.0,0.009789
4138.0,0.009938
4140.0,0.012454
4142.0,0.019646
4144.0,0.008253
4146.0,-0.006265
4148.0,0.037088
4150.0,-7.1e-05
4152.0,0.006087
4154.0,-0.010757
4156.0,-0.032273
4158.0,-0.011189
4160.0,0.001464
4162.0,0.008465
4164.0,0.000931
4166.0,0.012438
4168.0,0.015391
4170.0,0.015352
4172.0,0.000608
4174.0,0.001801
4176.0,-0.002656
4178.0,-0.012538
4180.0,0.021973
4182.0,-0.018044
4184.0,-0.000491
4186.0,0.003991
4188.0,-0.031491
4190.0,0.011747
4192.0,-0.004651
4194.0,0.003968
4196.0,-0.004357
4198.0,-0.022403
4200.0,0.003561
4202.0,0.002199
4204.0,0.015579
4206.0,0.007745
4208.0,-0.024619
4210.0,0.017147
4212.0,0.012573
4214.0,0.012126
4216.0,0.00792
4218.0,-0.009937
4220.0,0.008634
4222.0,-0.00482
4224.0,0.043865
4226.0,-0.002908
4228.0,-0.015994
4230.0,-0.004458
4232.0,0.022246
4234.0,-0.007905
4236.0,-0.036007
4238.0,0.022683
4240.0,0.005561
4242.0,-0.00679
4244.0,0.011371
4246.0,-0.013192
4248.0,-0.016946
4250.0,0.014937
4252.0,-0.007085
4254.0,0.008617
4256.0,0.000834
4258.0,0.013155
4260.0,0.002279
4262.0,-0.030086
4264.0,0.010867
4266.0,-0.006469
4268.0,0.013888
4270.0,0.002338
4272.0,0.022002
4274.0,-0.004073
4276.0,-0.030215
4278.0,-0.004169
4280.0,0.008355
4282.0,-0.004497
4284.0,-0.006384
4286.0,0.022742
4288.0,-0.00165
4290.0,0.016428
4292.0,0.002852
4294.0,-0.021072
4296.0,-0.013494
4298.0,-0.00409
4300.0,0.005229
4302.0,-0.011553
4304.0,-0.020602
4306.0,-0.014618
4308.0,-0.00723
4310.0,-0.012671
4312.0,-0.008155
4314.0,0.028532
4316.0,0.004789
4318.0,-0.011675
4320.0,0.00043
4322.0,0.024253
4324.0,0.010294
4326.0,-0.000944
4328.0,-0.019758
4330.0,-0.024914
4332.0,-0.004542
4334.0,-0.001014
4336.0,-0.023778
4338.0,-0.019466
4340.0,-9e-06
4342.0,-0.032626
4344.0,-0.025188
4346.0,-5.8e-05
4348.0,0.009202
4350.0,0.005656
4352.0,0.01596
4354.0,0.024794
4356.0,0.014775
4358.0,-0.002441
4360.0,0.033804
4362.0,0.027478
4364.0,0.016772
4366.0,-0.008953
4368.0,0.009936
4370.0,-0.026686
4372.0,0.000718
4374.0,-0.030468
4376.0,0.001956
4378.0,0.02529
4380.0,0.012085
4382.0,0.038259
4384.0,0.016543
4386.0,0.020975
4388.0,0.01819
4390.0,0.034391
4392.0,0.029996
4394.0,0.053061
4396.0,0.064188
4398.0,0.050967
4400.0,0.034283
4402.0,0.065724
4404.0,0.084188
4406.0,0.080432
4408.0,0.0821
4410.0,0.099049
4412.0,0.112011
4414.0,0.060327
4416.0,0.129507
4418.0,0.125305
4420.0,0.127581
4422.0,0.118259
4424.0,0.135717
4426.0,0.146539
4428.0,0.119522
4430.0,0.156628
4432.0,0.149194
4434.0,0.171969
4436.0,0.160973
4438.0,0.148084
4440.0,0.150485
4442.0,0.1573
4444.0,0.146978
4446.0,0.14923
4448.0,0.125786
4450.0,0.112511
4452.0,0.116835
4454.0,0.097642
4456.0,0.100693
4458.0,0.11065
4460.0,0.073625
4462.0,0.072366
4464.0,0.094572
4466.0,0.06841
4468.0,0.069207
4470.0,0.044062
4472.0,0.040499
4474.0,0.045532
4476.0,0.068867
4478.0,0.04576
4480.0,0.009123
4482.0,0.036537
4484.0,0.039652
4486.0,0.032604
4488.0,0.00068
4490.0,0.015242
4492.0,0.045632
4494.0,-0.002364
4496.0,0.014814
4498.0,-0.003027
4500.0,-0.012164
4502.0,-0.000693
4504.0,0.020304
4506.0,0.021464
4508.0,-0.009789
4510.0,-0.004191
4512.0,-0.01085
4514.0,-0.029021
4516.0,0.010964
4518.0,0.025027
4520.0,0.023999
4522.0,-0.00563
4524.0,0.021183
4526.0,0.017567
4528.0,-0.003921
4530.0,0.001026
4532.0,-0.004454
4534.0,0.004647
4536.0,0.028268
4538.0,-0.012839
4540.0,-0.016869
4542.0,0.01414
4544.0,0.001938
4546.0,-0.027314
4548.0,-0.014127
4550.0,-0.011343
4552.0,-0.00806
4554.0,0.005909
4556.0,0.016009
4558.0,-0.001327
4560.0,0.003338
4562.0,-0.010057
4564.0,0.016431
4566.0,0.021279
4568.0,-0.002824
4570.0,-0.009974
4572.0,0.032224
4574.0,0.015066
4576.0,-0.012233
4578.0,-0.024213
4580.0,-0.00324
4582.0,0.019158
4584.0,-0.006984
4586.0,-0.002495
4588.0,-0.006195
4590.0,0.010968
4592.0,0.022137
4594.0,-0.017677
4596.0,-0.003108
4598.0,-0.001775
4600.0,-0.008115
4602.0,-0.016712
4604.0,0.013555
4606.0,0.003578
4608.0,0.012041
4610.0,0.023956
4612.0,-0.00431
4614.0,0.009161
4616.0,-0.005315
4618.0,-0.001228
4620.0,0.003872
4622.0,-0.005788
4624.0,-0.029725
4626.0,0.00978
4628.0,-0.018912
4630.0,-0.049368
4632.0,-0.078482
4634.0,-0.059544
4636.0,-0.061199
4638.0,-0.061472
4640.0,-0.053449
4642.0,-0.050137
4644.0,0.018831
4646.0,0.074938
4648.0,0.228555
4650.0,0.403641
4652.0,0.564962
4654.0,0.750794
4656.0,0.896534
4658.0,0.971704
4660.0,0.98233
4662.0,0.851029
4664.0,0.731075
4666.0,0.503014
4668.0,0.321612
4670.0,0.153848
4672.0,0.035906
4674.0,-0.05735
4676.0,-0.092601
4678.0,-0.120089
4680.0,-0.086675
4682.0,-0.100401
4684.0,-0.090024
4686.0,-0.059159
4688.0,-0.036148
4690.0,-0.031872
4692.0,-0.033655
4694.0,-0.020657
4696.0,-0.000453
4698.0,0.012751
4700.0,0.009488
4702.0,0.002211
4704.0,0.012854
4706.0,-0.002303
4708.0,0.009661
4710.0,0.027807
4712.0,0.024005
4714.0,0.028456
4716.0,0.003505
4718.0,0.013208
4720.0,-0.003804
4722.0,0.026481
4724.0,0.0078
4726.0,-0.003973
4728.0,0.010172
4730.0,0.023452
4732.0,-0.01129
4734.0,0.002998
4736.0,0.041698
4738.0,0.031178
4740.0,0.032149
4742.0,0.012022
4744.0,0.063561
4746.0,0.059059
4748.0,0.058325
4750.0,0.035508
4752.0,0.065574
4754.0,0.079037
4756.0,0.062222
4758.0,0.068927
4760.0,0.071364
4762.0,0.093527
4764.0,0.087304
4766.0,0.092641
4768.0,0.082363
4770.0,0.086211
4772.0,0.13237
4774.0,0.149228
4776.0,0.146007
4778.0,0.161835
4780.0,0.140035
4782.0,0.154994
4784.0,0.168918
4786.0,0.168374
4788.0,0.203346
4790.0,0.165681
4792.0,0.184106
4794.0,0.194357
4796.0,0.195609
4798.0,0.225196
4800.0,0.188559
4802.0,0.241126
4804.0,0.242778
4806.0,0.238634
4808.0,0.259005
4810.0,0.276929
4812.0,0.247532
4814.0,0.258254
4816.0,0.255106
4818.0,0.258346
4820.0,0.243615
4822.0,0.240447
4824.0,0.259795
4826.0,0.241633
4828.0,0.261605
4830.0,0.257163
4832.0,0.235522
4834.0,0.244103
4836.0,0.235721
4838.0,0.227875
4840.0,0.24185
4842.0,0.219949
4844.0,0.216928
4846.0,0.178073
4848.0,0.209521
4850.0,0.172124
4852.0,0.180808
4854.0,0.203441
4856.0,0.198646
4858.0,0.158522
4860.0,0.137948
4862.0,0.155172
4864.0,0.135634
4866.0,0.139157
4868.0,0.106465
4870.0,0.136092
4872.0,0.135359
4874.0,0.083476
4876.0,0.086807
4878.0,0.081361
4880.0,0.096435
4882.0,0.049879
4884.0,0.076644
4886.0,0.064542
4888.0,0.050818
4890.0,0.068226
4892.0,0.023736
4894.0,0.027997
4896.0,0.032615
4898.0,0.051093
4900.0,0.031618
4902.0,0.021033
4904.0,0.037548
4906.0,0.020273
4908.0,0.015174
4910.0,0.017881
4912.0,0.025282
4914.0,0.058583
4916.0,4.9e-05
4918.0,0.018859
4920.0,0.010884
4922.0,0.007974
4924.0,0.033432
4926.0,0.021195
4928.0,0.018698
4930.0,0.001001
4932.0,-0.005665
4934.0,0.010773
4936.0,0.001488
4938.0,-0.003343
4940.0,0.01485
4942.0,-0.013664
4944.0,-0.006833
4946.0,0.015565
4948.0,0.002274
4950.0,0.013279
4952.0,-0.009686
4954.0,0.013479
4956.0,-0.007838
4958.0,0.022997
4960.0,0.01445
4962.0,0.009469
4964.0,0.025456
4966.0,0.007635
4968.0,-0.007108
4970.0,0.025594
4972.0,0.007486
4974.0,0.020545
4976.0,0.00455
4978.0,0.019679
4980.0,-0.01071
4982.0,-0.01669
4984.0,-0.018791
4986.0,0.013647
4988.0,-0.027184
4990.0,-0.024442
4992.0,-0.018984
4994.0,0.005756
4996.0,0.008835
4998.0,-0.009921
5000.0,0.014098
5002.0,0.007096
5004.0,0.020452
5006.0,0.016471
5008.0,-0.007995
5010.0,0.005334
5012.0,-0.000113
5014.0,0.009284
5016.0,0.005419
5018.0,0.002764
5020.0,0.013052
5022.0,0.003327
5024.0,0.013402
5026.0,0.002948
5028.0,6.9e-05
5030.0,0.016245
5032.0,0.016711
5034.0,0.021014
5036.0,0.011884
5038.0,-0.000716
5040.0,0.005306
5042.0,0.00482
5044.0,-0.023856
5046.0,-0.014349
5048.0,0.025293
5050.0,0.001574
5052.0,-0.040228
5054.0,0.000681
5056.0,0.004861
5058.0,-0.015938
5060.0,0.036511
5062.0,0.019292
5064.0,0.01459
5066.0,-0.000394
5068.0,0.009643
5070.0,0.015044
5072.0,0.009549
5074.0,-0.007602
5076.0,0.005248
5078.0,0.004375
5080.0,0.006751
5082.0,-0.013206
5084.0,0.006286
5086.0,0.002372
5088.0,0.005843
5090.0,0.005308
5092.0,-0.019244
5094.0,0.015061
5096.0,0.013435
5098.0,-0.017856
5100.0,0.000783
5102.0,-0.010549
5104.0,-0.00462
5106.0,0.017128
5108.0,0.010041
5110.0,0.031705
5112.0,0.003421
5114.0,-0.014721
5116.0,0.003692
5118.0,-0.034576
5120.0,0.028545
5122.0,0.005763
5124.0,0.008494
5126.0,0.004045
5128.0,-0.011006
5130.0,-9.5e-05
5132.0,-0.010075
5134.0,-0.006031
5136.0,0.006498
5138.0,-0.016522
5140.0,0.025963
5142.0,-0.014568
5144.0,0.013742
5146.0,-0.008277
5148.0,-0.01737
5150.0,0.006894
5152.0,0.003561
5154.0,-0.00236
5156.0,7.3e-05
5158.0,-0.00842
5160.0,0.007186
5162.0,-0.006411
5164.0,0.001038
5166.0,0.017268
5168.0,-0.019121
5170.0,-0.007925
5172.0,-0.00954
5174.0,-0.01139
5176.0,-0.01965
5178.0,-0.003667
5180.0,0.002652
5182.0,-0.001334
5184.0,-0.023502
5186.0,0.010436
5188.0,0.0108
5190.0,0.001341
5192.0,-0.01464
5194.0,-0.012509
5196.0,0.029303
5198.0,0.025952
5200.0,0.007379
5202.0,-0.013275
5204.0,0.019191
5206.0,0.003092
5208.0,0.025523
5210.0,-0.007863
5212.0,0.007845
5214.0,-0.002048
5216.0,0.012574
5218.0,-0.007736
5220.0,0.015839
5222.0,-0.003044
5224.0,-0.00991
5226.0,0.012641
5228.0,0.008635
5230.0,-0.025222
5232.0,0.00705
5234.0,0.01081
5236.0,0.01395
5238.0,0.043892
5240.0,0.006296
5242.0,0.018525
5244.0,-0.003309
5246.0,0.00396
5248.0,0.021237
5250.0,0.032331
5252.0,0.036278
5254.0,0.054079
5256.0,0.061287
5258.0,0.071589
5260.0,0.060582
5262.0,0.077174
5264.0,0.066157
5266.0,0.089469
5268.0,0.098561
5270.0,0.091159
5272.0,0.057753
5274.0,0.103061
5276.0,0.157955
5278.0,0.124249
5280.0,0.121889
5282.0,0.138112
5284.0,0.157567
5286.0,0.14948
5288.0,0.144132
5290.0,0.129838
5292.0,0.145451
5294.0,0.131916
5296.0,0.154015
5298.0,0.169274
5300.0,0.159589
5302.0,0.131195
5304.0,0.120796
5306.0,0.109459
5308.0,0.131079
5310.0,0.126632
5312.0,0.123194
5314.0,0.109413
5316.0,0.079011
5318.0,0.061044
5320.0,0.099207
5322.0,0.062772
5324.0,0.09672
5326.0,0.029952
5328.0,0.038543
5330.0,0.034981
5332.0,0.047242
5334.0,0.047935
5336.0,0.024847
5338.0,0.037613
5340.0,0.005181
5342.0,0.013581
5344.0,-0.000277
5346.0,0.006725
5348.0,0.002993
5350.0,0.015009
5352.0,0.060136
5354.0,-0.013496
5356.0,0.002661
5358.0,0.014814
5360.0,0.004684
5362.0,0.024096
5364.0,-0.013124
5366.0,0.013294
5368.0,-0.010484
5370.0,0.013173
5372.0,0.003132
5374.0,0.004121
5376.0,-0.008551
5378.0,-0.027589
5380.0,-0.01654
5382.0,0.01053
5384.0,-0.004081
5386.0,0.010855
5388.0,-0.020056
5390.0,0.009347
5392.0,0.01483
5394.0,-0.03339
5396.0,0.004524
5398.0,0.028776
5400.0,-0.0116
5402.0,0.014677
5404.0,0.000333
5406.0,0.012536
5408.0,-0.006041
5410.0,-0.011866
5412.0,-0.006655
5414.0,-0.005693
5416.0,-0.009058
5418.0,-0.013408
5420.0,0.016309
5422.0,-0.00893
5424.0,-0.018302
5426.0,-0.014257
5428.0,0.007096
5430.0,-0.033616
5432.0,0.007263
5434.0,0.010499
5436.0,0.018936
5438.0,-0.006801
5440.0,-0.012487
5442.0,0.002432
5444.0,0.001935
5446.0,0.019516
5448.0,0.000661
5450.0,-0.006529
5452.0,-0.02011
5454.0,-0.003268
5456.0,0.000993
5458.0,0.017568
5460.0,0.001471
5462.0,0.020107
5464.0,0.018479
5466.0,-0.011618
5468.0,-0.017266
5470.0,-0.009831
5472.0,-0.004133
5474.0,-0.013364
5476.0,0.008011
5478.0,0.005424
5480.0,0.009701
5482.0,-0.010014
5484.0,-0.029071
5486.0,-0.027399
5488.0,-0.060319
5490.0,-0.058306
5492.0,-0.083767
5494.0,-0.060651
5496.0,-0.111532
5498.0,-0.033094
5500.0,0.021007
5502.0,0.096081
5504.0,0.229952
5506.0,0.391561
5508.0,0.592161
5510.0,0.776661
5512.0,0.893759
5514.0,0.992811
5516.0,0.948989
5518.0,0.872141
5520.0,0.71616
5522.0,0.501467
5524.0,0.33516
5526.0,0.154108
5528.0,0.047742
5530.0,-0.064608
5532.0,-0.12782
5534.0,-0.141123
5536.0,-0.120761
5538.0,-0.102874
5540.0,-0.08246
5542.0,-0.07755
5544.0,-0.034642
5546.0,-0.038584
5548.0,-0.021587
5550.0,0.004801
5552.0,-0.006883
5554.0,-0.029295
5556.0,0.011599
5558.0,0.002161
5560.0,-0.002769
5562.0,0.02305
5564.0,-0.00503
5566.0,0.014885
5568.0,0.007902
5570.0,0.045693
5572.0,-0.019286
5574.0,0.011718
5576.0,0.015185
5578.0,0.027808
5580.0,0.006511
5582.0,0.004959
5584.0,0.037146
5586.0,0.01192
5588.0,0.024697
5590.0,0.022141
5592.0,0.031281
5594.0,0.008198
5596.0,0.023364
5598.0,0.034007
5600.0,0.040053
5602.0,0.058751
5604.0,0.05408
5606.0,0.059494
5608.0,0.054721
5610.0,0.079399
5612.0,0.056699
5614.0,0.069897
5616.0,0.054836
5618.0,0.067474
5620.0,0.102254
5622.0,0.095357
5624.0,0.075047
5626.0,0.109167
5628.0,0.113429
5630.0,0.107261
5632.0,0.136702
5634.0,0.135175
5636.0,0.146937
5638.0,0.168535
5640.0,0.152754
5642.0,0.185669
5644.0,0.172937
5646.0,0.180415
5648.0,0.210701
5650.0,0.203964
5652.0,0.198833
5654.0,0.209451
5656.0,0.220409
5658.0,0.200983
5660.0,0.237879
5662.0,0.232503
5664.0,0.21735
5666.0,0.226232
5668.0,0.256399
5670.0,0.226993
5672.0,0.28
5674.0,0.233108
5676.0,0.252842
5678.0,0.211519
5680.0,0.248087
5682.0,0.240095
5684.0,0.253297
5686.0,0.246494
5688.0,0.235554
5690.0,0.269178
5692.0,0.24437
5694.0,0.217202
5696.0,0.228288
5698.0,0.174263
5700.0,0.202795
5702.0,0.223872
5704.0,0.190277
5706.0,0.193879
5708.0,0.167305
5710.0,0.189056
5712.0,0.171592
5714.0,0.162275
5716.0,0.168695
5718.0,0.171603
5720.0,0.151421
5722.0,0.105938
5724.0,0.130392
5726.0,0.12105
5728.0,0.092735
5730.0,0.078681
5732.0,0.089943
5734.0,0.084968
5736.0,0.082089
5738.0,0.065984
5740.0,0.073477
5742.0,0.069963
5744.0,0.055918
5746.0,0.060994
5748.0,0.041695
5750.0,0.022464
5752.0,0.041754
5754.0,0.051154
5756.0,0.074781
5758.0,-0.000944
5760.0,0.020243
5762.0,0.011801
5764.0,0.026322
5766.0,0.006704
5768.0,0.019521
5770.0,0.030445
5772.0,0.002545
5774.0,0.011027
5776.0,0.03487
5778.0,0.022548
5780.0,-0.016216
5782.0,0.038081
5784.0,-0.004198
5786.0,0.009712
5788.0,-0.001804
5790.0,-0.003099
5792.0,-0.007271
5794.0,0.011909
5796.0,-0.009473
5798.0,-0.017142
5800.0,-0.007145
5802.0,0.001078
5804.0,-0.029261
5806.0,0.01249
5808.0,-0.010362
5810.0,0.011076
5812.0,0.020815
5814.0,0.004683
5816.0,0.007883
5818.0,-0.006979
5820.0,-0.010352
5822.0,-0.028785
5824.0,-0.003307
5826.0,-0.008647
5828.0,-0.036004
5830.0,0.003567
5832.0,0.022214
5834.0,0.005465
5836.0,0.01684
5838.0,-0.004631
5840.0,-0.015849
5842.0,0.000352
5844.0,-0.005814
5846.0,-0.017655
5848.0,0.014841
5850.0,0.001904
5852.0,-0.010465
5854.0,0.002306
5856.0,-0.002856
5858.0,0.008643
5860.0,0.023311
5862.0,-0.009886
5864.0,-0.018502
5866.0,0.020076
5868.0,0.035327
5870.0,-0.00972
5872.0,-0.014239
5874.0,-0.018556
5876.0,-0.000682
5878.0,0.001054
5880.0,-0.004464
5882.0,0.012013
5884.0,-0.012788
5886.0,-0.009441
5888.0,-0.01933
5890.0,0.020265
5892.0,0.015608
5894.0,0.019086
5896.0,-0.013121
5898.0,0.019573
5900.0,0.003891
5902.0,0.01031
5904.0,0.008251
5906.0,-0.005221
5908.0,-0.002938
5910.0,-0.023455
5912.0,-0.008606
5914.0,-0.003787
5916.0,-0.017689
5918.0,0.0011
5920.0,0.018772
5922.0,-0.007744
5924.0,-0.014803
5926.0,-0.01312
5928.0,0.002475
5930.0,0.025804
5932.0,0.002134
5934.0,0.000502
5936.0,-0.018906
5938.0,0.004655
5940.0,0.009061
5942.0,-0.006379
5944.0,-0.000711
5946.0,-0.010195
5948.0,0.010693
5950.0,0.01968
5952.0,0.005352
5954.0,0.0073
5956.0,0.000487
5958.0,-0.009901
5960.0,-0.011855
5962.0,-0.006348
5964.0,0.001435
5966.0,-0.000387
5968.0,0.014857
5970.0,0.010781
5972.0,0.021943
5974.0,0.011326
5976.0,-0.003911
5978.0,0.001179
5980.0,-0.024529
5982.0,0.024686
5984.0,-0.008959
5986.0,-0.006349
5988.0,0.026976
5990.0,-0.016279
5992.0,-0.009469
5994.0,-0.001177
5996.0,-0.008905
5998.0,0.001126
6000.0,0.003458
6002.0,0.009283
6004.0,-0.001801
6006.0,0.010174
6008.0,-0.005162
6010.0,0.008927
6012.0,0.017393
6014.0,-0.026004
6016.0,-0.003519
6018.0,0.002529
6020.0,-0.028367
6022.0,-0.045757
6024.0,0.004511
6026.0,-0.009797
6028.0,0.011555
6030.0,-0.0003
6032.0,-0.000344
6034.0,-0.005379
6036.0,0.001379
6038.0,-0.01368
6040.0,-0.007817
6042.0,0.011584
6044.0,-0.003926
6046.0,0.007405
6048.0,-0.000284
6050.0,-0.005194
6052.0,-0.014559
6054.0,0.012431
6056.0,-0.01251
6058.0,0.00546
6060.0,-0.023322
6062.0,0.003958
6064.0,0.005673
6066.0,-0.009562
6068.0,-0.024122
6070.0,-0.00228
6072.0,0.001671
6074.0,-0.007569
6076.0,-0.009742
6078.0,0.014071
6080.0,-0.000959
6082.0,-0.005249
6084.0,0.013872
6086.0,0.001379
6088.0,-0.008258
6090.0,0.015723
6092.0,-0.001893
6094.0,0.018123
6096.0,-0.004632
6098.0,0.011459
6100.0,0.026532
6102.0,0.016653
6104.0,0.01934
6106.0,0.020899
6108.0,0.02966
6110.0,0.021161
6112.0,0.030034
6114.0,0.023814
6116.0,0.060177
6118.0,0.023147
6120.0,0.053551
6122.0,0.03226
6124.0,0.060765
6126.0,0.078596
6128.0,0.049462
6130.0,0.098686
6132.0,0.06546
6134.0,0.074784
6136.0,0.099046
6138.0,0.085194
6140.0,0.12313
6142.0,0.122736
6144.0,0.081596
6146.0,0.106842
6148.0,0.12273
6150.0,0.14443
6152.0,0.126425
6154.0,0.134833
6156.0,0.157079
6158.0,0.134598
6160.0,0.154186
6162.0,0.129073
6164.0,0.162704
6166.0,0.166546
6168.0,0.125239
6170.0,0.103142
6172.0,0.108416
6174.0,0.142084
6176.0,0.113327
6178.0,0.130827
6180.0,0.088592
6182.0,0.087356
6184.0,0.092248
6186.0,0.102534
6188.0,0.076233
6190.0,0.057112
6192.0,0.069865
6194.0,0.060058
6196.0,0.059912
6198.0,0.043918
6200.0,0.031786
6202.0,0.036197
6204.0,-0.005474
6206.0,0.030891
6208.0,0.0413
6210.0,0.027845
6212.0,0.002543
6214.0,-0.008738
6216.0,0.031104
6218.0,0.002066
6220.0,0.004749
6222.0,0.009699
6224.0,-0.003624
6226.0,0.004684
6228.0,0.02542
6230.0,-0.004864
6232.0,0.030296
6234.0,0.007089
6236.0,0.005754
6238.0,0.014726
6240.0,0.014106
6242.0,0.015892
6244.0,0.008373
6246.0,-0.008622
6248.0,0.024041
6250.0,-0.002384
6252.0,-0.01256
6254.0,0.013029
6256.0,0.009349
6258.0,-0.000746
6260.0,0.000791
6262.0,0.008321
6264.0,0.028195
6266.0,-0.001442
6268.0,-0.018997
6270.0,-0.008758
6272.0,0.007211
6274.0,-0.003327
6276.0,-0.01019
6278.0,0.010442
6280.0,0.010563
6282.0,-0.003377
6284.0,0.003849
6286.0,-0.009794
6288.0,-0.009393
6290.0,-0.005432
6292.0,-0.020538
6294.0,0.004594
6296.0,-0.001598
6298.0,-0.00796
6300.0,0.001076
6302.0,0.001464
6304.0,-0.011559
6306.0,-0.009327
6308.0,-0.012353
6310.0,0.019359
6312.0,-0.025536
6314.0,-0.001914
6316.0,0.011605
6318.0,-0.016831
6320.0,-0.015063
6322.0,-0.015401
6324.0,-0.027683
6326.0,0.016348
6328.0,-0.004889
6330.0,-0.017877
6332.0,-0.011055
6334.0,0.000795
6336.0,-0.006751
6338.0,-0.015211
6340.0,0.005472
6342.0,-0.015224
6344.0,-0.008001
6346.0,0.0003
6348.0,-0.013166
6350.0,-0.00157
6352.0,-0.01284
6354.0,0.034983
6356.0,-0.012697
6358.0,5e-06
6360.0,-0.028445
6362.0,-0.040407
6364.0,-0.03645
6366.0,-0.052856
6368.0,-0.067046
6370.0,-0.075646
6372.0,-0.070646
6374.0,-0.054597
6376.0,-0.036657
6378.0,-0.026294
6380.0,0.070175
6382.0,0.175329
6384.0,0.28567
6386.0,0.46234
6388.0,0.652987
6390.0,0.850022
6392.0,0.934868
6394.0,0.973817
6396.0,0.952943
6398.0,0.808494
6400.0,0.636379
6402.0,0.455535
6404.0,0.267014
6406.0,0.076157
6408.0,-0.020085
6410.0,-0.06571
6412.0,-0.138422
6414.0,-0.113811
6416.0,-0.129499
6418.0,-0.10969
6420.0,-0.088644
6422.0,-0.097695
6424.0,-0.061796
6426.0,-0.050578
6428.0,-0.019253
6430.0,0.008287
6432.0,-0.012259
6434.0,-0.004551
6436.0,-0.032655
6438.0,-0.008103
6440.0,-0.005449
6442.0,-0.004123
6444.0,0.007992
6446.0,0.020372
6448.0,-0.00019
6450.0,0.006423
6452.0,-0.021953
6454.0,0.010899
6456.0,0.003179
6458.0,-0.022412
6460.0,0.009543
6462.0,-0.004135
6464.0,0.021875
6466.0,0.01505
6468.0,0.010975
6470.0,0.03691
6472.0,0.010905
6474.0,0.010727
6476.0,0.018066
6478.0,0.021755
6480.0,0.010041
6482.0,0.034071
6484.0,0.035006
6486.0,0.024337
6488.0,0.012652
6490.0,0.057679
6492.0,0.063559
6494.0,0.061947
6496.0,0.068075
6498.0,0.085254
6500.0,0.068947
6502.0,0.093949
6504.0,0.073497
6506.0,0.06897
6508.0,0.088573
6510.0,0.090334
6512.0,0.109163
6514.0,0.135881
6516.0,0.122374
6518.0,0.139079
6520.0,0.162676
6522.0,0.165325
6524.0,0.147553
6526.0,0.143829
6528.0,0.193118
6530.0,0.152993
6532.0,0.149311
6534.0,0.154
6536.0,0.20833
6538.0,0.175805
6540.0,0.200573
6542.0,0.208723
6544.0,0.236081
6546.0,0.201685
6548.0,0.228052
6550.0,0.236425
6552.0,0.25711
6554.0,0.236102
6556.0,0.246801
6558.0,0.241044
6560.0,0.263405
6562.0,0.262441
6564.0,0.243211
6566.0,0.257207
6568.0,0.226275
6570.0,0.248192
6572.0,0.232099
6574.0,0.236667
6576.0,0.254944
6578.0,0.268427
6580.0,0.23528
6582.0,0.225482
6584.0,0.21749
6586.0,0.22818
6588.0,0.208363
6590.0,0.219429
6592.0,0.221179
6594.0,0.200684
6596.0,0.178442
6598.0,0.188352
6600.0,0.159194
6602.0,0.135699
6604.0,0.171521
6606.0,0.175552
6608.0,0.159081
6610.0,0.126365
6612.0,0.073662
6614.0,0.106003
6616.0,0.119092
6618.0,0.096868
6620.0,0.116808
6622.0,0.077217
6624.0,0.090456
6626.0,0.080298
6628.0,0.074973
6630.0,0.044475
6632.0,0.058699
6634.0,0.059172
6636.0,0.04449
6638.0,0.026396
6640.0,0.034545
6642.0,0.023596
6644.0,0.039501
6646.0,0.045451
6648.0,0.032706
6650.0,0.030449
6652.0,0.01955
6654.0,0.022697
6656.0,-0.011681
6658.0,0.016648
6660.0,0.027017
6662.0,0.004086
6664.0,0.020904
6666.0,-0.013487
6668.0,0.008586
6670.0,0.003959
6672.0,0.012792
6674.0,0.007106
6676.0,0.037572
6678.0,-0.044376
6680.0,-0.01897
6682.0,-0.007849
6684.0,0.003248
6686.0,-0.008317
6688.0,-0.009123
6690.0,-0.022978
6692.0,-0.019998
6694.0,-0.012906
6696.0,0.022841
6698.0,-0.012399
6700.0,0.041184
6702.0,0.015586
6704.0,-0.004902
6706.0,0.011647
6708.0,0.014675
6710.0,-0.018846
6712.0,-0.025286
6714.0,0.021225
6716.0,-0.015368
6718.0,0.012114
6720.0,0.009285
6722.0,-0.026172
6724.0,0.008747
6726.0,0.007478
6728.0,0.018307
6730.0,-0.001541
6732.0,0.005832
6734.0,0.004663
6736.0,-0.004588
6738.0,0.023645
6740.0,0.013531
6742.0,0.022126
6744.0,0.004306
6746.0,0.016505
6748.0,-0.015431
6750.0,-0.010436
6752.0,0.014027
6754.0,-0.004506
6756.0,-0.007048
6758.0,0.001312
6760.0,-0.024924
6762.0,0.00144
6764.0,0.006294
6766.0,-0.005921
6768.0,-0.018018
6770.0,0.025316
6772.0,0.005324
6774.0,-0.016545
6776.0,-0.009975
6778.0,-0.02547
6780.0,-0.027341
6782.0,-0.029922
6784.0,-0.013683
6786.0,0.005252
6788.0,0.010038
6790.0,-0.002834
6792.0,0.014291
6794.0,0.00746
6796.0,-0.01842
6798.0,-0.013805
6800.0,0.003198
6802.0,0.00917
6804.0,0.015261
6806.0,-0.021804
6808.0,-0.030375
6810.0,0.029356
6812.0,-0.005238
6814.0,0.01404
6816.0,-0.000457
6818.0,-0.021795
6820.0,0.020168
6822.0,0.006152
6824.0,0.021389
6826.0,0.008278
6828.0,-0.01573
6830.0,-0.001389
6832.0,0.014246
6834.0,-0.011187
6836.0,0.002078
6838.0,0.016786
6840.0,-0.019354
6842.0,-0.006314
6844.0,0.001953
6846.0,0.013768
6848.0,-0.002085
6850.0,-0.011431
6852.0,0.007828
6854.0,-0.009809
6856.0,0.005706
6858.0,0.004804
6860.0,-0.003534
6862.0,0.012349
6864.0,0.017217
6866.0,-0.020207
6868.0,0.007305
6870.0,-0.003004
6872.0,-0.005034
6874.0,0.000792
6876.0,0.017243
6878.0,-0.002658
6880.0,-0.005287
6882.0,-0.019288
6884.0,-0.002908
6886.0,-0.00039
6888.0,-0.014711
6890.0,-0.004915
6892.0,0.006876
6894.0,0.020601
6896.0,-0.004524
6898.0,0.029765
6900.0,0.01482
6902.0,0.012924
6904.0,0.008837
6906.0,0.001491
6908.0,-0.009396
6910.0,-0.000917
6912.0,0.001036
6914.0,0.002587
6916.0,0.023339
6918.0,0.030318
6920.0,0.008393
6922.0,0.015387
6924.0,-0.009927
6926.0,-0.029363
6928.0,-0.001043
6930.0,0.004209
6932.0,0.021573
6934.0,0.036857
6936.0,0.004577
6938.0,0.020201
6940.0,0.017336
6942.0,0.003918
6944.0,0.013132
6946.0,0.00651
6948.0,0.02408
6950.0,-0.015017
6952.0,-0.033907
6954.0,0.002919
6956.0,0.014855
6958.0,0.01683
6960.0,-0.007364
6962.0,0.009427
6964.0,-0.008417
6966.0,0.011799
6968.0,-0.009416
6970.0,-0.014088
6972.0,0.01647
6974.0,-0.01606
6976.0,-0.018874
6978.0,0.015702
6980.0,0.00606
6982.0,-0.029293
6984.0,0.024203
6986.0,-0.010721
6988.0,0.002377
6990.0,0.009223
6992.0,0.043143
6994.0,0.014904
6996.0,0.0315
6998.0,0.018884
7000.0,0.032068
7002.0,0.007114
7004.0,0.032518
7006.0,0.028009
7008.0,0.027085
7010.0,0.052288
7012.0,0.069351
7014.0,0.067208
7016.0,0.061971
7018.0,0.084621
7020.0,0.064099
7022.0,0.092747
7024.0,0.103085
7026.0,0.101227
7028.0,0.105847
7030.0,0.11833
7032.0,0.11453
7034.0,0.125751
7036.0,0.145562
7038.0,0.110549
7040.0,0.162129
7042.0,0.153517
7044.0,0.152247
7046.0,0.135381
7048.0,0.144764
7050.0,0.141514
7052.0,0.159165
7054.0,0.156058
7056.0,0.160623
7058.0,0.140147
7060.0,0.104131
7062.0,0.114454
7064.0,0.117303
7066.0,0.12121
7068.0,0.086915
7070.0,0.099226
7072.0,0.095913
7074.0,0.078697
7076.0,0.077514
7078.0,0.107228
7080.0,0.065987
7082.0,0.089187
7084.0,0.056886
7086.0,0.036759
7088.0,0.05006
7090.0,0.030546
7092.0,0.030973
7094.0,-0.00583
7096.0,0.02902
7098.0,0.01165
7100.0,0.034189
7102.0,0.016269
7104.0,0.006608
7106.0,-0.00541
7108.0,0.008803
7110.0,0.001398
7112.0,-0.005851
7114.0,0.032542
7116.0,0.001617
7118.0,0.016369
7120.0,0.024343
7122.0,0.007976
7124.0,0.010902
7126.0,0.008766
7128.0,0.015264
7130.0,0.009323
7132.0,0.008058
7134.0,0.002528
7136.0,-0.006831
7138.0,-0.006156
7140.0,-0.009266
7142.0,0.003056
7144.0,0.019634
7146.0,-0.013925
7148.0,-0.008983
7150.0,-0.014544
7152.0,-0.000779
7154.0,0.015259
7156.0,-0.004935
7158.0,0.004547
7160.0,-0.03449
7162.0,-0.0022
7164.0,0.007206
7166.0,-0.009144
7168.0,-0.024244
7170.0,0.00681
7172.0,-0.001646
7174.0,0.026878
7176.0,-0.008618
7178.0,-0.002338
7180.0,-0.005682
7182.0,0.001481
7184.0,-0.027039
7186.0,0.020127
7188.0,0.00943
7190.0,-0.003414
7192.0,-0.005363
7194.0,0.007677
7196.0,0.005325
7198.0,-0.006234
7200.0,-0.002489
7202.0,0.005087
7204.0,-0.006318
7206.0,-0.004893
7208.0,-0.006316
7210.0,-0.00535
7212.0,-0.019245
7214.0,-0.013997
7216.0,0.005419
7218.0,0.011561
7220.0,-0.001062
7222.0,-0.053691
7224.0,-0.023387
7226.0,0.003163
7228.0,0.019495
7230.0,0.008165
7232.0,-0.019243
7234.0,-0.030469
7236.0,-0.043253
7238.0,-0.024549
7240.0,-0.060024
7242.0,-0.086833
7244.0,-0.060318
7246.0,-0.047964
7248.0,-0.052434
7250.0,0.037932
7252.0,0.170456
7254.0,0.316197
7256.0,0.461155
7258.0,0.665045
7260.0,0.842051
7262.0,0.944261
7264.0,0.955368
7266.0,0.913492
7268.0,0.796284
7270.0,0.61558
7272.0,0.400381
7274.0,0.26942
7276.0,0.091523
7278.0,-0.039068
7280.0,-0.086578
7282.0,-0.153479
7284.0,-0.129576
7286.0,-0.11044
7288.0,-0.055962
7290.0,-0.067493
7292.0,-0.044691
7294.0,-0.021829
7296.0,-0.016839
7298.0,-0.019489
7300.0,0.015551
7302.0,0.007063
7304.0,0.0246
7306.0,0.018529
7308.0,-0.009404
7310.0,-0.001431
7312.0,0.000214
7314.0,0.001371
7316.0,0.014653
7318.0,0.006505
7320.0,-0.001386
7322.0,0.033273
7324.0,0.033189
7326.0,0.015311
7328.0,0.000968
7330.0,0.009415
7332.0,0.00961
7334.0,0.009955
7336.0,0.011358
7338.0,0.032009
7340.0,0.035934
7342.0,0.041187
7344.0,0.024702
7346.0,0.046611
7348.0,0.075592
7350.0,0.054157
7352.0,0.049589
7354.0,0.100403
7356.0,0.07009
7358.0,0.06178
7360.0,0.089702
7362.0,0.072296
7364.0,0.08371
7366.0,0.110351
7368.0,0.093346
7370.0,0.08744
7372.0,0.126732
7374.0,0.135934
7376.0,0.11081
7378.0,0.133443
7380.0,0.162122
7382.0,0.157459
7384.0,0.173657
7386.0,0.167217
7388.0,0.167165
7390.0,0.175584
7392.0,0.18645
7394.0,0.200561
7396.0,0.165074
7398.0,0.18293
7400.0,0.217212
7402.0,0.232614
7404.0,0.21833
7406.0,0.232904
7408.0,0.221277
7410.0,0.22058
7412.0,0.246364
7414.0,0.24565
7416.0,0.241198
7418.0,0.230982
7420.0,0.251906
7422.0,0.250094
7424.0,0.246799
7426.0,0.247654
7428.0,0.242303
7430.0,0.252996
7432.0,0.248227
7434.0,0.265008
7436.0,0.255473
7438.0,0.229677
7440.0,0.20734
7442.0,0.229052
7444.0,0.20516
7446.0,0.229954
7448.0,0.179436
7450.0,0.188029
7452.0,0.209694
7454.0,0.180035
7456.0,0.183136
7458.0,0.174654
7460.0,0.150295
7462.0,0.162074
7464.0,0.129512
7466.0,0.12991
7468.0,0.1581
7470.0,0.117141
7472.0,0.117985
7474.0,0.08993
7476.0,0.118254
7478.0,0.078669
7480.0,0.074847
7482.0,0.070724
7484.0,0.059821
7486.0,0.047239
7488.0,0.058339
7490.0,0.050443
7492.0,0.05124
7494.0,0.033852
7496.0,0.030785
7498.0,0.03531
7500.0,0.036241
7502.0,0.019308
7504.0,0.02911
7506.0,0.023277
7508.0,0.039355
7510.0,0.030739
7512.0,0.026531
7514.0,0.031843
7516.0,0.006048
7518.0,0.033276
7520.0,0.014706
7522.0,0.00347
7524.0,0.015255
7526.0,-0.007347
7528.0,0.033108
7530.0,0.010069
7532.0,-0.016169
7534.0,-0.01151
7536.0,-0.003148
7538.0,-0.004429
7540.0,0.009783
7542.0,0.015624
7544.0,0.017248
7546.0,0.009989
7548.0,-0.011773
7550.0,0.017851
7552.0,0.019224
7554.0,-0.02704
7556.0,-0.007258
7558.0,-0.004279
7560.0,-0.01057
7562.0,0.015765
7564.0,0.00724
7566.0,0.001353
7568.0,-0.017334
7570.0,-0.029552
7572.0,-0.013275
7574.0,-0.011846
7576.0,-0.012926
7578.0,-0.030688
7580.0,-0.022194
7582.0,-0.00622
7584.0,0.00488
7586.0,-0.007738
7588.0,-0.003457
7590.0,-0.001157
7592.0,-0.001101
7594.0,0.017371
7596.0,-0.011756
7598.0,0.00284
7600.0,-0.019396
7602.0,0.017015
7604.0,0.010496
7606.0,0.014297
7608.0,0.001487
7610.0,-0.001916
7612.0,-0.01878
7614.0,0.004445
7616.0,0.019721
7618.0,-0.040486
7620.0,0.025434
7622.0,-0.012065
7624.0,0.006882
7626.0,-0.011991
7628.0,-0.002322
7630.0,0.011847
7632.0,-0.002764
7634.0,0.026312
7636.0,0.000517
7638.0,0.009424
7640.0,-0.009049
7642.0,-0.00738
7644.0,-0.005863
7646.0,0.007299
7648.0,0.024283
7650.0,0.000459
7652.0,-0.018813
7654.0,-0.00898
7656.0,-0.020061
7658.0,0.007069
7660.0,0.000373
7662.0,-0.015709
7664.0,-0.005274
7666.0,0.013702
7668.0,0.006706
7670.0,-0.008361
7672.0,0.010999
7674.0,0.005729
7676.0,-0.008032
7678.0,0.002697
7680.0,0.02739
7682.0,-0.016108
7684.0,0.014908
7686.0,-0.002047
7688.0,0.009249
7690.0,0.005847
7692.0,0.00411
7694.0,-0.002265
7696.0,4.6e-05
7698.0,0.009898
7700.0,0.006712
7702.0,-0.021354
7704.0,0.006673
7706.0,0.019166
7708.0,0.013104
7710.0,0.003088
7712.0,-0.026683
7714.0,0.008665
7716.0,0.0097
7718.0,0.021414
7720.0,-0.013961
7722.0,-0.003423
7724.0,-0.007757
7726.0,-0.003951
7728.0,-0.025258
7730.0,-0.006916
7732.0,-0.006348
7734.0,-0.005563
7736.0,0.023256
7738.0,-0.009298
7740.0,-0.006626
7742.0,0.0163
7744.0,-0.008367
7746.0,0.017452
7748.0,0.006442
7750.0,-0.009352
7752.0,-0.01052
7754.0,0.001858
7756.0,-0.003051
7758.0,0.00123
7760.0,-0.008625
7762.0,0.008445
7764.0,-0.010043
7766.0,-0.007089
7768.0,-0.002874
7770.0,-0.01865
7772.0,-0.004878
7774.0,-0.003257
7776.0,-0.021418
7778.0,-0.026489
7780.0,0.017941
7782.0,-0.004174
7784.0,-0.002309
7786.0,-0.009512
7788.0,0.022945
7790.0,-0.003206
7792.0,-0.026316
7794.0,0.00709
7796.0,-0.014296
7798.0,0.006475
7800.0,-0.001726
7802.0,0.019059
7804.0,0.007586
7806.0,-0.004681
7808.0,0.022127
7810.0,0.04167
7812.0,-0.005704
7814.0,0.01874
7816.0,0.009015
7818.0,0.011004
7820.0,-0.012779
7822.0,-0.007654
7824.0,0.02905
7826.0,0.012165
7828.0,0.004125
7830.0,0.040818
7832.0,0.034991
7834.0,0.030865
7836.0,0.009068
7838.0,0.027154
7840.0,0.053278
7842.0,0.006309
7844.0,0.01796
7846.0,0.035129
7848.0,0.06723
7850.0,0.062573
7852.0,0.072767
7854.0,0.075613
7856.0,0.081378
7858.0,0.104923
7860.0,0.147711
7862.0,0.108611
7864.0,0.128188
7866.0,0.109175
7868.0,0.145867
7870.0,0.129656
7872.0,0.136404
7874.0,0.13174
7876.0,0.131334
7878.0,0.13782
7880.0,0.133818
7882.0,0.130535
7884.0,0.17754
7886.0,0.156314
7888.0,0.16294
7890.0,0.15343
7892.0,0.121531
7894.0,0.139091
7896.0,0.120566
7898.0,0.116365
7900.0,0.120579
7902.0,0.118229
7904.0,0.110284
7906.0,0.103677
7908.0,0.090247
7910.0,0.087704
7912.0,0.098606
7914.0,0.105459
7916.0,0.082652
7918.0,0.056035
7920.0,0.058885
7922.0,0.061413
7924.0,0.056555
7926.0,0.054685
7928.0,0.05027
7930.0,0.033541
7932.0,0.019493
7934.0,-0.002721
7936.0,0.033157
7938.0,0.023691
7940.0,-0.000602
7942.0,0.010369
7944.0,0.002456
7946.0,0.000362
7948.0,0.031704
7950.0,-0.000743
7952.0,0.039978
7954.0,0.000993
7956.0,-0.008316
7958.0,0.003867
7960.0,0.037525
7962.0,-0.001107
7964.0,0.008576
7966.0,-0.033092
7968.0,0.00934
7970.0,-0.02009
7972.0,-0.001436
7974.0,0.020596
7976.0,-0.003585
7978.0,0.010855
7980.0,-0.003268
7982.0,-0.004954
7984.0,0.004196
7986.0,0.016278
7988.0,0.001481
7990.0,-0.00028
7992.0,-0.014334
7994.0,-0.025242
7996.0,0.001904
7998.0,-0.002747
8000.0,0.003997
8002.0,0.015506
8004.0,0.012222
8006.0,-0.013188
8008.0,0.003774
8010.0,0.004122
8012.0,-0.003747
8014.0,-0.033768
8016.0,-0.012095
8018.0,-0.001524
8020.0,0.011187
8022.0,-0.004814
8024.0,-0.021031
8026.0,0.020214
8028.0,-0.00075
8030.0,-0.007039
8032.0,0.007745
8034.0,0.010123
8036.0,-0.001433
8038.0,-0.00901
8040.0,-0.008788
8042.0,0.011623
8044.0,-0.002371
8046.0,0.007135
8048.0,-0.028918
8050.0,-0.007735
8052.0,-0.00608
8054.0,-0.007458
8056.0,-0.029621
8058.0,-0.007319
8060.0,0.022573
8062.0,0.002901
8064.0,-0.010847
8066.0,-0.016064
8068.0,-0.029481
8070.0,-0.011764
8072.0,-0.03546
8074.0,-0.040862
8076.0,-0.034794
8078.0,-0.047632
8080.0,-0.063574
8082.0,-0.101707
8084.0,-0.076069
8086.0,-0.019584
8088.0,0.005007
8090.0,0.138404
8092.0,0.255491
8094.0,0.439765
8096.0,0.604981
8098.0,0.767481
8100.0,0.898996
8102.0,0.99297
8104.0,0.937356
8106.0,0.814654
8108.0,0.678568
8110.0,0.450971
8112.0,0.285088
8114.0,0.134393
8116.0,0.015279
8118.0,-0.060095
8120.0,-0.109239
8122.0,-0.158683
8124.0,-0.113178
8126.0,-0.101559
8128.0,-0.083142
8130.0,-0.051809
8132.0,-0.02915
8134.0,-0.022771
8136.0,0.007244
8138.0,0.02493
8140.0,0.000958
8142.0,-0.005698
8144.0,-0.01814
8146.0,0.011096
8148.0,-0.023346
8150.0,0.029374
8152.0,0.019537
8154.0,-0.002182
8156.0,0.016848
8158.0,-0.005404
8160.0,-0.007723
8162.0,0.021554
8164.0,-0.00374
8166.0,0.016793
8168.0,0.012923
8170.0,0.040231
8172.0,0.023602
8174.0,0.04491
8176.0,0.036733
8178.0,0.014962
8180.0,0.01197
8182.0,0.001043
8184.0,0.036695
8186.0,-0.001795
8188.0,0.031626
8190.0,0.01206
8192.0,0.043461
8194.0,0.068235
8196.0,0.04961
8198.0,0.05987
8200.0,0.066985
8202.0,0.083825
8204.0,0.063781
8206.0,0.094049
8208.0,0.097547
8210.0,0.090463
8212.0,0.098294
8214.0,0.13842
8216.0,0.138498
8218.0,0.141536
8220.0,0.130135
8222.0,0.145071
8224.0,0.138312
8226.0,0.138952
8228.0,0.16579
8230.0,0.171216
8232.0,0.168681
8234.0,0.176074
8236.0,0.206643
8238.0,0.200598
8240.0,0.189988
8242.0,0.250032
8244.0,0.198643
8246.0,0.232806
8248.0,0.218928
8250.0,0.248024
8252.0,0.242262
8254.0,0.259183
8256.0,0.245069
8258.0,0.236326
8260.0,0.27026
8262.0,0.24806
8264.0,0.245462
8266.0,0.245377
8268.0,0.235183
8270.0,0.249204
8272.0,0.266336
8274.0,0.260259
8276.0,0.238432
8278.0,0.239244
8280.0,0.235904
8282.0,0.209814
8284.0,0.235962
8286.0,0.211235
8288.0,0.17377
8290.0,0.203513
8292.0,0.173561
8294.0,0.184565
8296.0,0.182824
8298.0,0.160526
8300.0,0.161753
8302.0,0.17027
8304.0,0.121739
8306.0,0.106576
8308.0,0.125537
8310.0,0.116358
8312.0,0.143878
8314.0,0.120556
8316.0,0.106636
8318.0,0.090534
8320.0,0.056561
8322.0,0.059489
8324.0,0.068484
8326.0,0.070451
8328.0,0.055848
8330.0,0.058755
8332.0,0.062717
8334.0,0.036981
8336.0,0.036949
8338.0,0.024761
8340.0,0.053655
8342.0,0.001672
8344.0,0.03776
8346.0,0.037289
8348.0,-0.007465
8350.0,0.013205
8352.0,0.034345
8354.0,0.002434
8356.0,0.005373
8358.0,0.011636
8360.0,0.030413
8362.0,0.018531
8364.0,-0.002322
8366.0,-0.01386
8368.0,-0.016894
8370.0,0.009812
8372.0,-0.028589
8374.0,-0.005476
8376.0,0.011445
8378.0,-0.016059
8380.0,-0.00339
8382.0,-0.000664
8384.0,0.011916
8386.0,-0.019958
8388.0,0.001019
8390.0,-0.001116
8392.0,0.001056
8394.0,-0.024317
8396.0,0.006754
8398.0,-0.013625
8400.0,-0.002815
8402.0,-0.013928
8404.0,0.027814
8406.0,-0.000495
8408.0,0.030701
8410.0,-0.010816
8412.0,-0.005637
8414.0,0.020616
8416.0,-0.007031
8418.0,0.005094
8420.0,0.015749
8422.0,-0.007114
8424.0,-0.011698
8426.0,-0.005287
8428.0,0.013617
8430.0,0.004855
8432.0,0.017771
8434.0,-0.005528
8436.0,-0.008726
8438.0,-0.018491
8440.0,-0.006062
8442.0,-0.010438
8444.0,-0.003377
8446.0,-0.015687
8448.0,-0.012303
8450.0,-0.00625
8452.0,0.012909
8454.0,-0.006582
8456.0,-0.010174
8458.0,0.013797
8460.0,0.018592
8462.0,-0.006048
8464.0,-0.005425
8466.0,-0.028722
8468.0,-0.024908
8470.0,-0.002283
8472.0,0.019216
8474.0,0.026064
8476.0,0.010785
8478.0,-0.008808
8480.0,0.006155
8482.0,-0.023521
8484.0,-0.002738
8486.0,-0.019228
8488.0,-0.001451
8490.0,0.019987
8492.0,0.031113
8494.0,0.001715
8496.0,0.004438
8498.0,-0.026307
8500.0,-0.011276
8502.0,0.021294
8504.0,0.01593
8506.0,0.011009
8508.0,0.005248
8510.0,0.023192
8512.0,-0.005308
8514.0,-0.004327
8516.0,0.040636
8518.0,-0.014321
8520.0,0.005273
8522.0,-0.007082
8524.0,0.021014
8526.0,-0.00541
8528.0,-0.006615
8530.0,-0.006112
8532.0,0.010661
8534.0,-0.016515
8536.0,-0.023679
8538.0,-0.003249
8540.0,-0.006784
8542.0,0.006634
8544.0,-0.006636
8546.0,-0.010531
8548.0,0.002862
8550.0,0.004997
8552.0,0.013861
8554.0,-0.000458
8556.0,-0.028624
8558.0,-0.002131
8560.0,-0.00131
8562.0,-0.002915
8564.0,0.006566
8566.0,-0.005668
8568.0,0.015312
8570.0,-0.005794
8572.0,0.019598
8574.0,-0.018085
8576.0,-0.036769
8578.0,-0.015874
8580.0,0.041344
8582.0,-0.005272
8584.0,-0.003056
8586.0,0.002696
8588.0,-0.007754
8590.0,0.002626
8592.0,0.000514
8594.0,0.02972
8596.0,0.016761
8598.0,0.002849
8600.0,0.009279
8602.0,0.007913
8604.0,-0.0174
8606.0,0.015666
8608.0,-0.010637
8610.0,0.010783
8612.0,0.001033
8614.0,0.012556
8616.0,0.020319
8618.0,0.007786
8620.0,-0.00827
8622.0,-0.00574
8624.0,0.007496
8626.0,-0.007255
8628.0,-0.006745
8630.0,-0.002766
8632.0,-0.00634
8634.0,0.006944
8636.0,-0.007685
8638.0,0.000534
8640.0,-0.011813
8642.0,-0.026805
8644.0,0.01128
8646.0,0.01409
8648.0,-0.007972
8650.0,0.011787
8652.0,0.004573
8654.0,-0.017273
8656.0,0.018248
8658.0,-0.029046
8660.0,0.000561
8662.0,0.012799
8664.0,-0.013869
8666.0,0.027694
8668.0,-0.004174
8670.0,0.024742
8672.0,0.00458
8674.0,0.019492
8676.0,0.010434
8678.0,0.04923
8680.0,0.022456
8682.0,0.034794
8684.0,0.033699
8686.0,0.029622
8688.0,0.027196
8690.0,0.041867
8692.0,0.055819
8694.0,0.060103
8696.0,0.060641
8698.0,0.056799
8700.0,0.076096
8702.0,0.057523
8704.0,0.079243
8706.0,0.056131
8708.0,0.083887
8710.0,0.099072
8712.0,0.087354
8714.0,0.098224
8716.0,0.136077
8718.0,0.135616
8720.0,0.149968
8722.0,0.156011
8724.0,0.152205
8726.0,0.157814
8728.0,0.152678
8730.0,0.168962
8732.0,0.127284
8734.0,0.147145
8736.0,0.163859
8738.0,0.158628
8740.0,0.143758
8742.0,0.133745
8744.0,0.146473
8746.0,0.125876
8748.0,0.10552
8750.0,0.133335
8752.0,0.103315
8754.0,0.104663
8756.0,0.0703
8758.0,0.04889
8760.0,0.086861
8762.0,0.097887
8764.0,0.031853
8766.0,0.051708
8768.0,0.061535
8770.0,0.050048
8772.0,0.042589
8774.0,0.036083
8776.0,0.017376
8778.0,0.044076
8780.0,0.038196
8782.0,0.025817
8784.0,-0.017168
8786.0,0.039826
8788.0,0.011473
8790.0,0.018183
8792.0,0.037436
8794.0,0.026735
8796.0,0.004484
8798.0,0.020892
8800.0,0.012915
8802.0,-0.005533
8804.0,0.004635
8806.0,-0.024388
8808.0,-0.021854
8810.0,0.004363
8812.0,0.022449
8814.0,-0.01372
8816.0,0.018907
8818.0,0.003024
8820.0,0.027672
8822.0,-0.004751
8824.0,0.045033
8826.0,0.007321
8828.0,-0.00304
8830.0,0.004301
8832.0,-0.027054
8834.0,0.00569
8836.0,-0.004329
8838.0,0.008001
8840.0,-0.004448
8842.0,-0.040454
8844.0,-0.038792
8846.0,-0.009524
8848.0,-0.018756
8850.0,0.013506
8852.0,-0.015989
8854.0,0.006929
8856.0,-0.002278
8858.0,0.023478
8860.0,0.001553
8862.0,0.003179
8864.0,-0.015114
8866.0,0.005776
8868.0,0.010223
8870.0,-0.001638
8872.0,0.010812
8874.0,-0.015565
8876.0,-0.003212
8878.0,0.006221
8880.0,-0.004623
8882.0,0.018578
8884.0,0.009766
8886.0,-0.009198
8888.0,-0.013918
8890.0,-5.4e-05
8892.0,-0.010839
8894.0,-0.005897
8896.0,-0.016823
8898.0,0.011754
8900.0,0.002681
8902.0,0.004625
8904.0,0.012435
8906.0,-0.034465
8908.0,0.00064
8910.0,-0.003629
8912.0,0.010204
8914.0,0.007361
8916.0,0.007186
8918.0,0.01796
8920.0,-0.03137
8922.0,-0.022135
8924.0,0.007507
8926.0,0.003984
8928.0,-0.039642
8930.0,-0.022708
8932.0,-0.040286
8934.0,-0.087554
8936.0,-0.086087
8938.0,-0.073704
8940.0,-0.067116
8942.0,-0.004111
8944.0,0.043024
8946.0,0.149538
8948.0,0.266926
8950.0,0.430751
8952.0,0.625655
8954.0,0.826415
8956.0,0.955908
8958.0,0.964638
8960.0,0.937688
8962.0,0.786962
8964.0,0.673929
8966.0,0.44329
8968.0,0.291097
8970.0,0.14158
8972.0,-0.013788
8974.0,-0.082812
8976.0,-0.10003
8978.0,-0.10456
8980.0,-0.128677
8982.0,-0.120934
8984.0,-0.079261
8986.0,-0.043977
8988.0,-0.060486
8990.0,-0.040253
8992.0,0.00051
8994.0,-0.006144
8996.0,-0.016552
8998.0,-0.001078
9000.0,0.007894
9002.0,0.017227
9004.0,0.006987
9006.0,0.002951
9008.0,-0.021535
9010.0,0.012444
9012.0,0.012702
9014.0,0.008831
9016.0,0.00688
9018.0,0.009377
9020.0,0.022949
9022.0,0.004182
9024.0,-0.007074
9026.0,0.026099
9028.0,0.008484
9030.0,0.01171
9032.0,0.024401
9034.0,0.016279
9036.0,0.021404
9038.0,0.008219
9040.0,0.047461
9042.0,0.010753
9044.0,0.053995
9046.0,0.018703
9048.0,0.030848
9050.0,0.039286
9052.0,0.063168
9054.0,0.057634
9056.0,0.05261
9058.0,0.046001
9060.0,0.085232
9062.0,0.076479
9064.0,0.088289
9066.0,0.085436
9068.0,0.087196
9070.0,0.111479
9072.0,0.112884
9074.0,0.13272
9076.0,0.125802
9078.0,0.109034
9080.0,0.149299
9082.0,0.146133
9084.0,0.149477
9086.0,0.113933
9088.0,0.155128
9090.0,0.178064
9092.0,0.173453
9094.0,0.193867
9096.0,0.205975
9098.0,0.20343
9100.0,0.195965
9102.0,0.222558
9104.0,0.227193
9106.0,0.223244
9108.0,0.203244
9110.0,0.217368
9112.0,0.251692
9114.0,0.238966
9116.0,0.218498
9118.0,0.244724
9120.0,0.24954
9122.0,0.259234
9124.0,0.256299
9126.0,0.254971
9128.0,0.23662
9130.0,0.221284
9132.0,0.234862
9134.0,0.261801
9136.0,0.214992
9138.0,0.247147
9140.0,0.206631
9142.0,0.20459
9144.0,0.220265
9146.0,0.200559
9148.0,0.202946
9150.0,0.182723
9152.0,0.195202
9154.0,0.198987
9156.0,0.156921
9158.0,0.179679
9160.0,0.169616
9162.0,0.168195
9164.0,0.114563
9166.0,0.154646
9168.0,0.116252
9170.0,0.122359
9172.0,0.112098
9174.0,0.096265
9176.0,0.091529
9178.0,0.086717
9180.0,0.093585
9182.0,0.095548
9184.0,0.074002
9186.0,0.084344
9188.0,0.069199
9190.0,0.07881
9192.0,0.036638
9194.0,0.053907
9196.0,0.046567
9198.0,0.045016
9200.0,0.044286
9202.0,0.047434
9204.0,0.034075
9206.0,0.036507
9208.0,0.021517
9210.0,0.020887
9212.0,0.011195
9214.0,0.034434
9216.0,0.028009
9218.0,0.033575
9220.0,0.005694
9222.0,0.008481
9224.0,0.046714
9226.0,0.024594
9228.0,-0.014321
9230.0,0.017376
9232.0,0.010651
9234.0,-0.000413
9236.0,-0.000183
9238.0,-0.009359
9240.0,-0.005073
9242.0,-0.009222
9244.0,-0.015565
9246.0,-0.004224
9248.0,-0.012015
9250.0,0.011612
9252.0,0.016155
9254.0,-0.001842
9256.0,-0.004784
9258.0,0.009658
9260.0,-0.001789
9262.0,0.030041
9264.0,-0.039739
9266.0,-0.035297
9268.0,-0.016847
9270.0,0.006715
9272.0,0.011204
9274.0,-0.007564
9276.0,-0.000255
9278.0,-0.004868
9280.0,0.006793
9282.0,0.029748
9284.0,-0.034555
9286.0,0.032758
9288.0,0.015299
9290.0,-0.005164
9292.0,0.006897
9294.0,-0.000873
9296.0,0.006665
9298.0,0.006645
9300.0,0.011185
9302.0,-0.015518
9304.0,0.008695
9306.0,-0.010327
9308.0,-0.004916
9310.0,0.011469
9312.0,-0.007065
9314.0,0.004109
9316.0,0.004449
9318.0,0.001135
9320.0,-0.018684
9322.0,0.00694
9324.0,0.002389
9326.0,0.033125
9328.0,-0.015939
9330.0,0.015538
9332.0,-0.006614
9334.0,-0.004802
9336.0,0.025428
9338.0,-0.002246
9340.0,0.011801
9342.0,0.001725
9344.0,-0.013751
9346.0,-0.00346
9348.0,-0.00674
9350.0,-0.003529
9352.0,0.027836
9354.0,0.006871
9356.0,-0.026158
9358.0,0.028094
9360.0,0.005537
9362.0,0.013347
9364.0,0.023371
9366.0,-0.012438
9368.0,0.004916
9370.0,-0.002229
9372.0,-0.005307
9374.0,-0.004606
9376.0,0.001513
9378.0,0.017499
9380.0,0.011653
9382.0,0.004338
9384.0,0.018062
9386.0,-0.034761
9388.0,0.000587
9390.0,0.005391
9392.0,0.004776
9394.0,0.021341
9396.0,0.002676
9398.0,0.020706
9400.0,-0.00253
9402.0,0.01051
9404.0,0.001758
9406.0,-0.003585
9408.0,0.007949
9410.0,0.008781
9412.0,-0.013252
9414.0,0.014398
9416.0,-0.003737
9418.0,0.001679
9420.0,-0.040116
9422.0,-0.000193
9424.0,-0.02851
9426.0,0.013144
9428.0,-0.011512
9430.0,-0.006433
9432.0,-0.002459
9434.0,-0.019778
9436.0,0.000596
9438.0,-0.018206
9440.0,-0.002981
9442.0,0.01305
9444.0,0.019422
9446.0,0.021687
9448.0,-0.003229
9450.0,-0.014207
9452.0,0.007469
9454.0,0.0236
9456.0,-0.012988
9458.0,0.020524
9460.0,-0.001895
9462.0,-0.039494
9464.0,0.00118
9466.0,0.028359
9468.0,0.010956
9470.0,0.016177
9472.0,0.006172
9474.0,-0.02512
9476.0,-0.035261
9478.0,-0.015824
9480.0,-0.00564
9482.0,-0.01501
9484.0,-0.012002
9486.0,0.011836
9488.0,0.022079
9490.0,-0.025313
9492.0,-0.015904
9494.0,-0.001374
9496.0,-0.00293
9498.0,-0.035271
9500.0,0.044323
9502.0,0.010754
9504.0,0.005574
9506.0,-0.028776
9508.0,0.004674
9510.0,-0.017413
9512.0,0.007995
9514.0,0.004832
9516.0,0.00113
9518.0,0.007108
9520.0,-0.00798
9522.0,0.003634
9524.0,-0.034952
9526.0,0.012573
9528.0,-0.000807
9530.0,0.040646
9532.0,0.004687
9534.0,-0.031513
9536.0,0.027822
9538.0,-0.005227
9540.0,-0.009911
9542.0,0.007941
9544.0,0.029759
9546.0,0.041781
9548.0,0.009012
9550.0,0.020861
9552.0,0.024106
9554.0,0.014351
9556.0,0.020471
9558.0,0.030281
9560.0,0.036296
9562.0,0.058437
9564.0,0.018907
9566.0,0.0612
9568.0,0.066037
9570.0,0.087793
9572.0,0.068208
9574.0,0.075534
9576.0,0.090004
9578.0,0.087198
9580.0,0.093975
9582.0,0.099948
9584.0,0.106792
9586.0,0.107747
9588.0,0.119986
9590.0,0.122704
9592.0,0.128065
9594.0,0.122873
9596.0,0.160409
9598.0,0.152952
9600.0,0.14875
9602.0,0.133484
9604.0,0.158765
9606.0,0.14385
9608.0,0.143324
9610.0,0.14287
9612.0,0.135548
9614.0,0.147121
9616.0,0.114769
9618.0,0.11063
9620.0,0.116203
9622.0,0.103988
9624.0,0.108146
9626.0,0.106432
9628.0,0.106066
9630.0,0.092499
9632.0,0.066841
9634.0,0.061726
9636.0,0.05204
9638.0,0.068739
9640.0,0.042132
9642.0,0.02731
9644.0,0.019459
9646.0,0.041756
9648.0,0.013235
9650.0,-0.017116
9652.0,0.029933
9654.0,0.021344
9656.0,0.025247
9658.0,0.026337
9660.0,0.017244
9662.0,0.013777
9664.0,0.007295
9666.0,-0.006487
9668.0,-0.027439
9670.0,-0.025979
9672.0,0.008403
9674.0,0.014261
9676.0,0.002266
9678.0,-0.010065
9680.0,0.010688
9682.0,0.000491
9684.0,0.000848
9686.0,-0.004879
9688.0,-0.01712
9690.0,-0.014753
9692.0,0.006062
9694.0,0.024616
9696.0,0.026634
9698.0,-0.002535
9700.0,0.006945
9702.0,-0.001132
9704.0,0.002464
9706.0,0.006392
9708.0,0.01376
9710.0,-0.016928
9712.0,0.026724
9714.0,-0.001694
9716.0,-0.014489
9718.0,0.034892
9720.0,-0.013154
9722.0,-0.000341
9724.0,-0.010778
9726.0,0.017937
9728.0,-0.039972
9730.0,0.005274
9732.0,-0.023627
9734.0,0.023562
9736.0,0.031693
9738.0,0.013139
9740.0,-0.011475
9742.0,0.017701
9744.0,0.033152
9746.0,0.004028
9748.0,-0.00537
9750.0,0.022263
9752.0,-0.019742
9754.0,-0.004155
9756.0,-0.000579
9758.0,0.002072
9760.0,0.016808
9762.0,-0.002022
9764.0,-0.01639
9766.0,-0.020867
9768.0,-0.001999
9770.0,0.007169
9772.0,0.014649
9774.0,0.009472
9776.0,-0.020556
9778.0,0.008621
9780.0,-0.010025
9782.0,0.01912
9784.0,-0.005665
9786.0,-0.006643
9788.0,-0.013149
9790.0,0.006008
9792.0,-0.016441
9794.0,0.017844
9796.0,-0.017219
9798.0,-0.065653
9800.0,-0.062459
9802.0,-0.057701
9804.0,-0.066232
9806.0,-0.061116
9808.0,-0.038642
9810.0,-0.009137
9812.0,0.083647
9814.0,0.249694
9816.0,0.394083
9818.0,0.588785
9820.0,0.775401
9822.0,0.874856
9824.0,0.943231
9826.0,0.963025
9828.0,0.847552
9830.0,0.691004
9832.0,0.522936
9834.0,0.312843
9836.0,0.152413
9838.0,0.032453
9840.0,-0.082069
9842.0,-0.077669
9844.0,-0.116375
9846.0,-0.129109
9848.0,-0.089744
9850.0,-0.100561
9852.0,-0.075499
9854.0,-0.064105
9856.0,-0.033153
9858.0,-0.028987
9860.0,-0.005642
9862.0,-0.014316
9864.0,0.002887
9866.0,0.007501
9868.0,0.008021
9870.0,0.008615
9872.0,0.004889
9874.0,-0.008087
9876.0,-0.024853
9878.0,0.01098
9880.0,-0.014533
9882.0,0.01256
9884.0,0.00773
9886.0,0.00892
9888.0,0.011042
9890.0,0.020994
9892.0,-0.000614
9894.0,0.020502
9896.0,0.033897
9898.0,0.031674
9900.0,0.038755
9902.0,0.020587
9904.0,0.026302
9906.0,0.058647
9908.0,0.04139
9910.0,0.041241
9912.0,0.056136
9914.0,0.03213
9916.0,0.04754
9918.0,0.06076
9920.0,0.058139
9922.0,0.086861
9924.0,0.076228
9926.0,0.088643
9928.0,0.069023
9930.0,0.087474
9932.0,0.093735
9934.0,0.108627
9936.0,0.11507
9938.0,0.114904
9940.0,0.130838
9942.0,0.160909
9944.0,0.137522
9946.0,0.134874
9948.0,0.170324
9950.0,0.1821
9952.0,0.17023
9954.0,0.189362
9956.0,0.151708
9958.0,0.196571
9960.0,0.193734
9962.0,0.236172
9964.0,0.21308
9966.0,0.243209
9968.0,0.218684
9970.0,0.222594
9972.0,0.223557
9974.0,0.218349
9976.0,0.231183
9978.0,0.259419
9980.0,0.222736
9982.0,0.249098
9984.0,0.265801
9986.0,0.253853
9988.0,0.258024
9990.0,0.254999
9992.0,0.256594
9994.0,0.218587
9996.0,0.267341
9998.0,0.247453
10000.0,0.230429
10002.0,0.230311
10004.0,0.228202
10006.0,0.235468
10008.0,0.202348
10010.0,0.195373
10012.0,0.188404
10014.0,0.214855
10016.0,0.181073
10018.0,0.189484
10020.0,0.163338
10022.0,0.172038
10024.0,0.158113
10026.0,0.147002
10028.0,0.167144
10030.0,0.144267
10032.0,0.120956
10034.0,0.16348
10036.0,0.10638
10038.0,0.095701
10040.0,0.081103
10042.0,0.123345
10044.0,0.095717
10046.0,0.091249
10048.0,0.096508
10050.0,0.076069
10052.0,0.079345
10054.0,0.088245
10056.0,0.061935
10058.0,0.065418
10060.0,0.051977
10062.0,0.046792
10064.0,0.06196
10066.0,0.045705
10068.0,0.037693
10070.0,0.002127
10072.0,0.014099
10074.0,0.01444
10076.0,0.021941
10078.0,0.025536
10080.0,0.020214
10082.0,0.01357
10084.0,0.019383
10086.0,0.018
10088.0,0.024647
10090.0,-0.016426
10092.0,0.024094
10094.0,0.037032
10096.0,0.02398
10098.0,-0.000208
10100.0,-0.007944
10102.0,0.003931
10104.0,0.024346
10106.0,0.007898
10108.0,-0.026626
10110.0,-0.046261
10112.0,0.005645
10114.0,0.037783
10116.0,-0.021741
10118.0,-0.00773
10120.0,0.001789
10122.0,0.005891
10124.0,0.014157
10126.0,-0.022862
10128.0,0.002392
10130.0,-0.009162
10132.0,0.012962
10134.0,0.006221
10136.0,0.017033
10138.0,-0.017981
10140.0,-0.0164
10142.0,-0.010479
10144.0,-0.006936
10146.0,-0.010628
10148.0,-0.018759
10150.0,-0.00874
10152.0,-0.024386
10154.0,0.014693
10156.0,-0.007456
10158.0,-0.019166
10160.0,0.00239
10162.0,-0.024322
10164.0,0.005215
10166.0,-0.00553
10168.0,0.02561
10170.0,0.007769
10172.0,-0.011964
10174.0,0.013044
10176.0,0.001553
10178.0,0.009612
10180.0,-0.046397
10182.0,-0.007131
10184.0,-0.007059
10186.0,0.018883
10188.0,-0.016532
10190.0,0.004849
10192.0,-0.00298
10194.0,-0.021112
10196.0,-0.008885
10198.0,0.007727
10200.0,-0.00344
10202.0,-0.00304
10204.0,-0.0016
10206.0,0.000852
10208.0,0.004223
10210.0,-0.001675
10212.0,-0.022537
10214.0,-0.003716
10216.0,0.000781
10218.0,0.024002
10220.0,-0.015585
10222.0,0.022836
10224.0,-0.008669
10226.0,0.02326
10228.0,-0.03138
10230.0,-0.004861
10232.0,-0.035793
10234.0,-0.022406
10236.0,-0.007318
10238.0,0.006451
10240.0,-0.012396
10242.0,0.002866
10244.0,-0.013121
10246.0,0.023279
10248.0,-0.009508
10250.0,0.028595
10252.0,0.02617
10254.0,-0.014396
10256.0,0.007082
10258.0,-0.007746
10260.0,0.021148
10262.0,0.004074
10264.0,0.026509
10266.0,-0.003526
10268.0,-0.00522
10270.0,-0.012456
10272.0,0.001181
10274.0,0.005441
10276.0,0.000218
10278.0,0.003712
10280.0,0.010527
10282.0,-0.001915
10284.0,-0.010392
10286.0,-0.015796
10288.0,-0.00918
10290.0,-0.005784
10292.0,0.01449
10294.0,0.012999
10296.0,-0.011558
10298.0,0.008258
10300.0,-0.0142
10302.0,0.011802
10304.0,-0.024843
10306.0,0.014051
10308.0,-0.003293
10310.0,0.003053
10312.0,-0.002182
10314.0,-0.016304
10316.0,0.001329
10318.0,-0.000381
10320.0,0.010806
10322.0,0.008833
10324.0,0.017949
10326.0,0.007836
10328.0,-0.017545
10330.0,0.011204
10332.0,-0.018439
10334.0,-0.011162
10336.0,0.000579
10338.0,-0.012898
10340.0,-0.006296
10342.0,0.014706
10344.0,-0.009528
10346.0,-0.013831
10348.0,-0.0197
10350.0,0.041994
10352.0,-0.007066
10354.0,0.000188
10356.0,0.000397
10358.0,0.016394
10360.0,-0.008806
10362.0,-0.01372
10364.0,-0.005942
10366.0,-0.011876
10368.0,-0.021587
10370.0,-0.028215
10372.0,0.000604
10374.0,-0.006264
10376.0,0.021037
10378.0,-0.007421
10380.0,-0.004834
10382.0,0.01893
10384.0,-0.024162
10386.0,0.013183
10388.0,-0.010469
10390.0,-0.014548
10392.0,0.008764
10394.0,0.00583
10396.0,-0.011979
10398.0,0.009915
10400.0,0.030845
10402.0,0.021588
10404.0,0.013067
10406.0,0.005249
10408.0,0.014848
10410.0,0.026244
10412.0,0.019116
10414.0,0.033044
10416.0,0.044955
10418.0,0.01283
10420.0,0.042549
10422.0,0.052993
10424.0,0.047334
10426.0,0.047924
10428.0,0.086684
10430.0,0.069704
10432.0,0.076771
10434.0,0.077226
10436.0,0.088107
10438.0,0.095361
10440.0,0.105503
10442.0,0.091556
10444.0,0.096438
10446.0,0.117318
10448.0,0.127156
10450.0,0.128567
10452.0,0.152014
10454.0,0.144299
10456.0,0.158078
10458.0,0.152363
10460.0,0.116242
10462.0,0.156433
10464.0,0.169694
10466.0,0.148127
10468.0,0.141913
10470.0,0.121748
10472.0,0.137849
10474.0,0.113421
10476.0,0.096843
10478.0,0.119894
10480.0,0.122145
10482.0,0.098398
10484.0,0.092827
10486.0,0.078073
10488.0,0.104659
10490.0,0.079374
10492.0,0.061629
10494.0,0.055587
10496.0,0.055664
10498.0,0.064011
10500.0,0.033918
10502.0,0.023601
10504.0,0.036658
10506.0,0.025808
10508.0,0.001855
10510.0,0.018326
10512.0,0.012436
10514.0,0.008288
10516.0,0.014148
10518.0,0.01341
10520.0,0.033084
10522.0,0.015888
10524.0,0.017796
10526.0,-0.002514
10528.0,0.003349
10530.0,-0.007435
10532.0,-0.008418
10534.0,0.013816
10536.0,0.033353
10538.0,0.011069
10540.0,0.006475
10542.0,0.008166
10544.0,0.011949
10546.0,-0.001221
10548.0,-0.001055
10550.0,0.009069
10552.0,0.023599
10554.0,0.000853
10556.0,-0.025038
10558.0,0.01124
10560.0,0.002605
10562.0,-0.012169
10564.0,-0.012825
10566.0,-0.047503
10568.0,-0.01195
10570.0,-0.003715
10572.0,0.007112
10574.0,-0.001265
10576.0,-0.015166
10578.0,-0.006594
10580.0,0.000195
10582.0,0.00828
10584.0,0.003827
10586.0,0.012208
10588.0,-0.028986
10590.0,0.002592
10592.0,0.003889
10594.0,-0.014433
10596.0,0.00262
10598.0,-0.00809
10600.0,-0.018445
10602.0,-0.019612
10604.0,0.007659
10606.0,0.008262
10608.0,0.01587
10610.0,0.010835
10612.0,0.006929
10614.0,-0.016161
10616.0,-0.00323
10618.0,-0.004305
10620.0,0.029669
10622.0,-0.01313
10624.0,-0.01938
10626.0,-0.015128
10628.0,0.014776
10630.0,-0.009649
10632.0,0.010666
10634.0,-0.00792
10636.0,0.0148
10638.0,-0.023942
10640.0,-0.008681
10642.0,0.00504
10644.0,-0.010407
10646.0,-0.025289
10648.0,0.002031
10650.0,-0.05025
10652.0,-0.054459
10654.0,-0.038664
10656.0,-0.042879
10658.0,-0.076253
10660.0,-0.092486
10662.0,-0.073159
10664.0,-0.021514
10666.0,0.069208
10668.0,0.208759
10670.0,0.358213
10672.0,0.540301
10674.0,0.701847
10676.0,0.874046
10678.0,0.967844
10680.0,0.979678
10682.0,0.892679
10684.0,0.742975
10686.0,0.580958
10688.0,0.395103
10690.0,0.195072
10692.0,0.066156
10694.0,-0.018852
10696.0,-0.069564
10698.0,-0.091716
10700.0,-0.120112
10702.0,-0.089976
10704.0,-0.107488
10706.0,-0.100957
10708.0,-0.054744
10710.0,-0.026579
10712.0,-0.041533
10714.0,-0.012588
10716.0,-0.002014
10718.0,-0.001344
10720.0,0.005205
10722.0,0.019195
10724.0,-0.000351
10726.0,-0.002547
10728.0,0.01317
10730.0,0.021668
10732.0,0.000257
10734.0,0.027905
10736.0,0.019738
10738.0,0.004314
10740.0,0.010787
10742.0,0.001081
10744.0,0.02453
10746.0,0.017713
10748.0,0.047585
10750.0,-0.017888
10752.0,0.004719
10754.0,0.017783
10756.0,0.035945
10758.0,0.025889
10760.0,0.023983
10762.0,0.04442
10764.0,0.035726
10766.0,0.049687
10768.0,0.063768
10770.0,0.069646
10772.0,0.037102
10774.0,0.054442
10776.0,0.077418
10778.0,0.074049
10780.0,0.071339
10782.0,0.097961
10784.0,0.096855
10786.0,0.109043
10788.0,0.122547
10790.0,0.110898
10792.0,0.138872
10794.0,0.133853
10796.0,0.142636
10798.0,0.16144
10800.0,0.130187
10802.0,0.13714
10804.0,0.152154
10806.0,0.189154
10808.0,0.185603
10810.0,0.182786
10812.0,0.182559
10814.0,0.179493
10816.0,0.215193
10818.0,0.216499
10820.0,0.228086
10822.0,0.241042
10824.0,0.236531
10826.0,0.256455
10828.0,0.234269
10830.0,0.265477
10832.0,0.252216
10834.0,0.240006
10836.0,0.251876
10838.0,0.281789
10840.0,0.231636
10842.0,0.240641
10844.0,0.242132
10846.0,0.249042
10848.0,0.245087
10850.0,0.268585
10852.0,0.234678
10854.0,0.243312
10856.0,0.221597
10858.0,0.207671
10860.0,0.216237
10862.0,0.208953
10864.0,0.216212
10866.0,0.219069
10868.0,0.186272
10870.0,0.201748
10872.0,0.163654
10874.0,0.196706
10876.0,0.142067
10878.0,0.148512
10880.0,0.151986
10882.0,0.135252
10884.0,0.116676
10886.0,0.135981
10888.0,0.103742
10890.0,0.125235
10892.0,0.082839
10894.0,0.112437
10896.0,0.102785
10898.0,0.091954
10900.0,0.093473
10902.0,0.069356
10904.0,0.06593
10906.0,0.078258
10908.0,0.041182
10910.0,0.047655
10912.0,0.043915
10914.0,0.039539
10916.0,0.034876
10918.0,-0.000379
10920.0,0.031553
10922.0,0.032657
10924.0,0.043792
10926.0,0.034529
10928.0,0.01187
10930.0,0.014284
10932.0,0.002551
10934.0,0.009056
10936.0,0.003741
10938.0,0.027017
10940.0,0.015273
10942.0,0.017193
10944.0,0.001931
10946.0,0.004102
10948.0,0.012989
10950.0,-0.006889
10952.0,0.011626
10954.0,0.016165
10956.0,-0.005539
10958.0,0.002393
10960.0,-0.010422
10962.0,0.025889
10964.0,0.007962
10966.0,0.017122
10968.0,-0.002198
10970.0,-0.011973
10972.0,-0.000704
10974.0,0.020735
10976.0,0.024187
10978.0,0.011764
10980.0,9.5e-05
10982.0,0.00617
10984.0,0.016065
10986.0,-0.014766
10988.0,0.013133
10990.0,-0.011757
10992.0,0.004037
10994.0,0.010857
10996.0,0.004314
10998.0,0.00164
11000.0,0.019036
11002.0,-0.005615
11004.0,-0.004858
11006.0,-0.013282
11008.0,0.002951
11010.0,0.011218
11012.0,-0.001358
11014.0,-0.02757
11016.0,0.006638
11018.0,0.009404
11020.0,-0.012224
11022.0,-0.003143
11024.0,0.000653
11026.0,-0.011007
11028.0,0.004092
11030.0,0.001435
11032.0,-0.016638
11034.0,-0.039841
11036.0,-0.013308
11038.0,0.020664
11040.0,0.017582
11042.0,-0.004518
11044.0,-0.015481
11046.0,0.021139
11048.0,0.010271
11050.0,0.018219
11052.0,0.027052
11054.0,0.006522
11056.0,0.001342
11058.0,-0.010993
11060.0,0.002166
11062.0,-0.014354
11064.0,0.015643
11066.0,-0.003144
11068.0,0.023063
11070.0,-0.004916
11072.0,0.006489
11074.0,-0.011334
11076.0,0.01287
11078.0,-0.011948
11080.0,0.019036
11082.0,0.008077
11084.0,-0.026758
11086.0,-0.020102
11088.0,0.003566
11090.0,-0.000769
11092.0,0.029216
11094.0,-0.012837
11096.0,-0.002978
11098.0,4.6e-05
11100.0,0.003463
11102.0,0.025272
11104.0,-0.001201
11106.0,-0.02319
11108.0,0.023113
11110.0,0.006313
11112.0,-0.021662
11114.0,-0.009663
11116.0,-0.004419
11118.0,0.00199
11120.0,0.011879
11122.0,-0.003385
11124.0,-0.007521
11126.0,-0.014087
11128.0,-0.002315
11130.0,0.001197
11132.0,0.006947
11134.0,-0.03152
11136.0,-0.012884
11138.0,0.00708
11140.0,0.024847
11142.0,0.013395
11144.0,-0.033331
11146.0,-0.028286
11148.0,0.008358
11150.0,0.000705
11152.0,0.000993
11154.0,0.029028
11156.0,-0.015464
11158.0,0.017775
11160.0,0.001694
11162.0,-0.008586
11164.0,-0.030539
11166.0,-0.01716
11168.0,0.022388
11170.0,0.0014
11172.0,0.011879
11174.0,0.008613
11176.0,-0.002235
11178.0,0.012393
11180.0,0.00473
11182.0,-0.002638
11184.0,-0.004631
11186.0,-0.010611
11188.0,0.004276
11190.0,-0.002674
11192.0,0.016364
11194.0,-0.004483
11196.0,-0.013276
11198.0,-0.02729
11200.0,0.011221
11202.0,0.036719
11204.0,-0.000421
11206.0,-0.032452
11208.0,0.013779
11210.0,-0.009698
11212.0,0.01034
11214.0,0.005515
11216.0,0.010674
11218.0,0.002019
11220.0,-0.003711
11222.0,0.016074
11224.0,-0.003812
11226.0,0.017799
11228.0,-0.008068
11230.0,0.00311
11232.0,-0.009777
11234.0,0.015129
11236.0,-0.008047
11238.0,-0.009675
11240.0,0.016832
11242.0,0.008599
11244.0,0.003237
11246.0,-0.009023
11248.0,0.006041
11250.0,0.014065
11252.0,0.019689
11254.0,0.001541
11256.0,0.021587
11258.0,-0.010914
11260.0,0.020822
11262.0,0.00997
11264.0,0.037621
11266.0,0.025104
11268.0,0.069739
11270.0,0.043442
11272.0,0.051429
11274.0,0.019418
11276.0,0.038635
11278.0,0.080421
11280.0,0.062453
11282.0,0.095821
11284.0,0.076319
11286.0,0.102972
11288.0,0.089532
11290.0,0.114758
11292.0,0.125107
11294.0,0.134964
11296.0,0.116991
11298.0,0.11427
11300.0,0.146277
11302.0,0.145502
11304.0,0.155311
11306.0,0.130105
11308.0,0.160215
11310.0,0.147272
11312.0,0.133553
11314.0,0.141187
11316.0,0.158978
11318.0,0.144704
11320.0,0.140353
11322.0,0.13462
11324.0,0.122177
11326.0,0.139852
11328.0,0.115736
11330.0,0.087277
11332.0,0.080234
11334.0,0.086021
11336.0,0.08124
11338.0,0.090335
11340.0,0.034179
11342.0,0.076799
11344.0,0.076239
11346.0,0.045637
11348.0,0.065167
11350.0,0.031175
11352.0,0.033657
11354.0,0.024092
11356.0,0.050778
11358.0,0.040364
11360.0,0.036138
11362.0,0.000101
11364.0,0.01572
11366.0,-0.004873
11368.0,0.012249
11370.0,0.016533
11372.0,0.027101
11374.0,0.003414
11376.0,0.007942
11378.0,0.001565
11380.0,-0.012919
11382.0,0.026957
11384.0,0.007578
11386.0,0.022947
11388.0,0.013672
11390.0,-0.017935
11392.0,-0.00849
11394.0,0.010802
11396.0,0.013197
11398.0,0.010611
11400.0,0.000366
11402.0,0.013087
11404.0,-0.014446
11406.0,-0.003502
11408.0,-0.01707
11410.0,0.014912
11412.0,0.005698
11414.0,0.010611
11416.0,-0.003853
11418.0,-0.037827
11420.0,-0.011766
11422.0,0.002327
11424.0,0.000836
11426.0,0.013747
11428.0,0.016754
11430.0,-0.008354
11432.0,0.01177
11434.0,-0.025845
11436.0,0.009998
11438.0,-0.031572
11440.0,0.007537
11442.0,-0.034105
11444.0,0.007391
11446.0,0.023873
11448.0,-0.002518
11450.0,0.010549
11452.0,0.016687
11454.0,-0.040393
11456.0,-0.028974
11458.0,0.000266
11460.0,-0.016437
11462.0,-0.006124
11464.0,0.041019
11466.0,0.028067
11468.0,0.00984
11470.0,-0.010027
11472.0,0.008419
11474.0,0.005551
11476.0,-0.002196
11478.0,0.025279
11480.0,-0.028629
11482.0,0.024238
11484.0,-0.006097
11486.0,0.020099
11488.0,-0.001854
11490.0,-0.00875
11492.0,-0.010713
11494.0,0.002375
11496.0,0.001972
11498.0,0.039402
11500.0,0.012596
11502.0,-0.019691
11504.0,-0.047742
11506.0,-0.040346
11508.0,-0.046963
11510.0,-0.094562
11512.0,-0.077042
11514.0,-0.05621
11516.0,-0.065163
11518.0,-0.040222
11520.0,0.070786
11522.0,0.197219
11524.0,0.320838
11526.0,0.505496
11528.0,0.705529
11530.0,0.855811
11532.0,0.940185
11534.0,0.968901
11536.0,0.910389
11538.0,0.7764
11540.0,0.613706
11542.0,0.386929
11544.0,0.231064
11546.0,0.078912
11548.0,-0.053428
11550.0,-0.074218
11552.0,-0.114396
11554.0,-0.143192
11556.0,-0.141514
11558.0,-0.081813
11560.0,-0.049089
11562.0,-0.052689
11564.0,-0.039709
11566.0,-0.01133
11568.0,-0.022635
11570.0,-0.013954
11572.0,0.01275
11574.0,-0.016866
11576.0,0.019772
11578.0,0.007713
11580.0,0.023918
11582.0,-0.023954
11584.0,0.02504
11586.0,0.004373
11588.0,0.016345
11590.0,-0.005031
11592.0,-0.007287
11594.0,0.027219
11596.0,0.018123
11598.0,0.020586
11600.0,0.024113
11602.0,0.024656
11604.0,-0.007135
11606.0,0.014423
11608.0,0.016102
11610.0,0.054715
11612.0,0.04703
11614.0,0.01572
11616.0,0.009516
11618.0,0.046829
11620.0,0.048272
11622.0,0.064509
11624.0,0.029726
11626.0,0.077608
11628.0,0.059695
11630.0,0.081511
11632.0,0.071301
11634.0,0.066106
11636.0,0.066126
11638.0,0.105439
11640.0,0.041256
11642.0,0.11408
11644.0,0.114742
11646.0,0.100402
11648.0,0.130122
11650.0,0.12359
11652.0,0.112954
11654.0,0.13603
11656.0,0.157055
11658.0,0.156295
11660.0,0.151395
11662.0,0.181224
11664.0,0.189511
11666.0,0.204195
11668.0,0.195862
11670.0,0.222492
11672.0,0.194896
11674.0,0.205446
11676.0,0.19607
11678.0,0.222532
11680.0,0.229563
11682.0,0.232842
11684.0,0.21761
11686.0,0.25664
11688.0,0.217802
11690.0,0.231878
11692.0,0.202504
11694.0,0.265542
11696.0,0.262367
11698.0,0.247036
11700.0,0.254482
11702.0,0.228928
11704.0,0.229496
11706.0,0.22866
11708.0,0.245603
11710.0,0.231034
11712.0,0.235609
11714.0,0.211717
11716.0,0.20224
11718.0,0.224115
11720.0,0.216086
11722.0,0.212132
11724.0,0.188903
11726.0,0.195994
11728.0,0.160596
11730.0,0.16045
11732.0,0.174997
11734.0,0.147757
11736.0,0.135901
11738.0,0.132648
11740.0,0.165368
11742.0,0.125514
11744.0,0.129458
11746.0,0.1149
11748.0,0.147929
11750.0,0.101764
11752.0,0.112944
11754.0,0.104756
11756.0,0.090517
11758.0,0.078013
11760.0,0.048502
11762.0,0.075276
11764.0,0.095151
11766.0,0.064756
11768.0,0.083335
11770.0,0.058524
11772.0,0.057505
11774.0,0.032066
11776.0,0.033753
11778.0,0.039899
11780.0,0.046837
11782.0,0.010557
11784.0,0.001656
11786.0,0.019663
11788.0,0.01747
11790.0,0.024404
11792.0,0.041807
11794.0,0.004983
11796.0,0.041164
11798.0,0.019652
11800.0,0.010024
11802.0,-0.01751
11804.0,0.030644
11806.0,0.034192
11808.0,0.013411
11810.0,0.013174
11812.0,-0.001943
11814.0,-0.025787
11816.0,-0.008762
11818.0,-0.019301
11820.0,-0.018529
11822.0,-0.010695
11824.0,-0.006943
11826.0,0.009698
11828.0,0.021753
11830.0,-0.001995
11832.0,0.013495
11834.0,-0.004404
11836.0,-0.003914
11838.0,0.006034
11840.0,-0.009056
11842.0,0.004352
11844.0,-0.007056
11846.0,-0.013021
11848.0,-0.010006
11850.0,0.02372
11852.0,0.004016
11854.0,-0.00684
11856.0,0.002824
11858.0,-0.011658
11860.0,-0.00722
11862.0,-0.005535
11864.0,-0.025853
11866.0,-0.002632
11868.0,0.006576
11870.0,0.004045
11872.0,-0.002396
11874.0,0.016104
11876.0,-0.012772
11878.0,0.016835
11880.0,0.014766
11882.0,0.002982
11884.0,0.023058
11886.0,-0.012242
11888.0,0.003658
11890.0,-0.002357
11892.0,-0.011873
11894.0,-0.005039
11896.0,0.00603
11898.0,0.006006
11900.0,0.009472
11902.0,-0.010258
11904.0,-0.001671
11906.0,-0.00188
11908.0,-0.010139
11910.0,-0.000342
11912.0,-0.032515
11914.0,-0.01785
11916.0,-0.007758
11918.0,-0.005912
11920.0,0.009588
11922.0,-0.008654
11924.0,0.025292
11926.0,-0.022455
11928.0,0.027609
11930.0,-0.014622
11932.0,-0.017586
11934.0,-0.011555
11936.0,-0.009693
11938.0,-0.004768
11940.0,-0.007291
11942.0,0.006558
11944.0,0.011429
11946.0,-0.01634
11948.0,0.018307
11950.0,0.003415
11952.0,-0.000314
11954.0,0.012461
11956.0,-0.001738
11958.0,0.021417
11960.0,-0.018567
11962.0,0.017988
11964.0,-0.00746
11966.0,0.010745
11968.0,-0.007052
11970.0,0.024778
11972.0,0.005514
11974.0,0.011044
11976.0,-0.016262
11978.0,-0.022545
11980.0,0.003382
11982.0,0.022608
11984.0,0.002238
11986.0,-0.022321
11988.0,0.02542
11990.0,-0.007917
11992.0,0.011217
11994.0,-0.012514
11996.0,-0.010922
11998.0,0.00415
12000.0,-0.039907
12002.0,-0.015268
12004.0,-0.006652
12006.0,-0.006512
12008.0,-0.024915
12010.0,0.016073
12012.0,-0.003862
12014.0,-0.003187
12016.0,-0.029159
12018.0,-0.002156
12020.0,0.008825
12022.0,0.011866
12024.0,0.008035
12026.0,-0.00217
12028.0,-0.004551
12030.0,0.001551
12032.0,0.008838
12034.0,-0.004578
12036.0,-0.004453
12038.0,0.004567
12040.0,-0.005021
12042.0,0.002647
12044.0,0.00075
12046.0,-0.015031
12048.0,0.021188
12050.0,0.008767
12052.0,-0.014827
12054.0,-0.015559
12056.0,-0.008587
12058.0,-0.010265
12060.0,-0.016055
12062.0,0.001847
12064.0,-0.00629
12066.0,-0.015598
12068.0,0.021307
12070.0,-0.006665
12072.0,0.003256
12074.0,-0.021394
12076.0,-0.017947
12078.0,-0.016552
12080.0,0.012353
12082.0,0.009251
12084.0,-0.004911
12086.0,-0.005775
12088.0,0.003627
12090.0,-0.013902
12092.0,-0.004504
12094.0,0.013406
12096.0,-0.013629
12098.0,0.009621
12100.0,-0.001003
12102.0,0.003827
12104.0,-0.000408
12106.0,0.015288
12108.0,0.016596
12110.0,0.013075
12112.0,-0.01773
12114.0,0.009979
12116.0,0.027662
12118.0,-0.002501
12120.0,-0.007579
12122.0,0.014892
12124.0,0.033552
12126.0,0.006557
12128.0,0.034622
12130.0,0.030118
12132.0,0.038879
12134.0,0.051026
12136.0,0.048295
12138.0,0.048825
12140.0,0.066363
12142.0,0.093622
12144.0,0.086822
12146.0,0.095473
12148.0,0.07878
12150.0,0.092137
12152.0,0.087306
12154.0,0.127508
12156.0,0.135173
12158.0,0.132799
12160.0,0.143442
12162.0,0.130542
12164.0,0.135407
12166.0,0.162007
12168.0,0.140595
12170.0,0.163104
12172.0,0.173049
12174.0,0.130973
12176.0,0.133555
12178.0,0.16938
12180.0,0.155702
12182.0,0.160052
12184.0,0.157148
12186.0,0.122379
12188.0,0.150656
12190.0,0.134833
12192.0,0.122716
12194.0,0.105278
12196.0,0.087952
12198.0,0.074596
12200.0,0.057379
12202.0,0.059087
12204.0,0.053214
12206.0,0.060845
12208.0,0.041327
12210.0,0.019635
12212.0,0.042782
12214.0,0.004729
12216.0,0.025327
12218.0,0.036285
12220.0,-0.000485
12222.0,0.000885
12224.0,0.014959
12226.0,0.032975
12228.0,0.008898
12230.0,0.002127
12232.0,0.010985
12234.0,-0.020435
12236.0,-0.018187
12238.0,0.013461
12240.0,0.014291
12242.0,0.01052
12244.0,0.003113
12246.0,0.007332
12248.0,-0.025928
12250.0,-0.016314
12252.0,-0.006215
12254.0,0.013911
12256.0,0.002221
12258.0,-0.000294
12260.0,-0.017669
12262.0,0.000946
12264.0,0.004749
12266.0,0.007631
12268.0,-0.002877
12270.0,0.02954
12272.0,-0.01825
12274.0,0.012525
12276.0,-0.019978
12278.0,-0.019889
12280.0,0.009867
12282.0,-0.006756
12284.0,-0.012042
12286.0,-0.000106
12288.0,0.03748
12290.0,-0.009685
12292.0,-0.005583
12294.0,0.01786
12296.0,-0.008926
12298.0,0.035363
12300.0,-0.019636
12302.0,-0.00365
12304.0,0.01424
12306.0,-0.003848
12308.0,-0.007813
12310.0,-0.021529
12312.0,-0.002415
12314.0,0.012438
12316.0,-0.004424
12318.0,-0.015299
12320.0,0.019499
12322.0,0.012256
12324.0,0.008203
12326.0,-0.003783
12328.0,-0.013334
12330.0,0.016613
12332.0,0.000444
12334.0,-0.006173
12336.0,-0.003281
12338.0,0.005221
12340.0,0.01206
12342.0,-0.000917
12344.0,-0.00631
12346.0,-0.017539
12348.0,-0.00485
12350.0,-0.003974
12352.0,0.003714
12354.0,-0.001902
12356.0,-0.010597
12358.0,-0.00616
12360.0,0.001657
12362.0,-0.014189
12364.0,-0.02281
12366.0,-0.034092
12368.0,-0.047952
12370.0,-0.051801
12372.0,-0.060683
12374.0,-0.082602
12376.0,-0.079788
12378.0,-0.053328
12380.0,-0.005495
12382.0,0.078812
12384.0,0.152013
12386.0,0.335801
12388.0,0.494897
12390.0,0.695917
12392.0,0.859999
12394.0,0.976779
12396.0,0.965339
12398.0,0.925508
12400.0,0.739248
12402.0,0.595577
12404.0,0.368984
12406.0,0.21345
12408.0,0.063584
12410.0,-0.044322
12412.0,-0.086926
12414.0,-0.134109
12416.0,-0.141914
12418.0,-0.127522
12420.0,-0.105474
12422.0,-0.068734
12424.0,-0.0622
12426.0,-0.051582
12428.0,-0.049272
12430.0,-0.005526
12432.0,-0.003253
12434.0,0.005816
12436.0,-0.010785
12438.0,0.018507
12440.0,0.009858
12442.0,0.036057
12444.0,-0.00237
12446.0,0.016095
12448.0,0.028436
12450.0,0.00173
12452.0,0.005703
12454.0,-0.000343
12456.0,0.004102
12458.0,0.021282
12460.0,0.01375
12462.0,-0.003335
12464.0,0.050478
12466.0,0.005209
12468.0,0.035026
12470.0,0.020867
12472.0,0.032635
12474.0,0.03376
12476.0,0.040059
12478.0,0.043095
12480.0,0.060196
12482.0,0.028224
12484.0,0.022734
12486.0,0.02169
12488.0,0.020473
12490.0,0.062866
12492.0,0.034492
12494.0,0.04179
12496.0,0.074741
12498.0,0.072688
12500.0,0.084357
12502.0,0.049459
12504.0,0.076818
12506.0,0.079717
12508.0,0.109097
12510.0,0.115989
12512.0,0.129807
12514.0,0.149499
12516.0,0.190318
12518.0,0.138652
12520.0,0.164464
12522.0,0.175152
12524.0,0.16761
12526.0,0.161877
12528.0,0.19684
12530.0,0.204404
12532.0,0.206282
12534.0,0.193881
12536.0,0.177824
12538.0,0.201415
12540.0,0.240353
12542.0,0.245277
12544.0,0.217107
12546.0,0.240115
12548.0,0.259345
12550.0,0.262828
12552.0,0.231751
12554.0,0.244676
12556.0,0.247688
12558.0,0.232875
12560.0,0.275258
12562.0,0.222389
12564.0,0.253563
12566.0,0.260907
12568.0,0.249946
12570.0,0.251256
12572.0,0.203046
12574.0,0.233234
12576.0,0.232299
12578.0,0.226983
12580.0,0.197515
12582.0,0.207716
12584.0,0.192704
12586.0,0.219198
12588.0,0.181713
12590.0,0.182426
12592.0,0.174456
12594.0,0.166577
12596.0,0.187506
12598.0,0.176341
12600.0,0.152682
12602.0,0.134446
12604.0,0.12532
12606.0,0.096708
12608.0,0.118309
12610.0,0.114722
12612.0,0.100476
12614.0,0.082428
12616.0,0.107455
12618.0,0.094939
12620.0,0.079761
12622.0,0.095122
12624.0,0.069832
12626.0,0.088009
12628.0,0.053089
12630.0,0.053413
12632.0,0.037793
12634.0,0.056127
12636.0,0.031465
12638.0,0.041127
12640.0,0.033682
12642.0,0.017475
12644.0,0.058723
12646.0,0.039482
12648.0,0.017215
12650.0,0.031205
12652.0,0.021741
12654.0,0.008237
12656.0,0.040429
12658.0,0.024042
12660.0,0.019394
12662.0,0.016853
12664.0,0.018056
12666.0,0.01848
12668.0,0.009985
12670.0,0.00848
12672.0,0.006744
12674.0,-0.018175
12676.0,0.001121
12678.0,0.021595
12680.0,0.025879
12682.0,0.005619
12684.0,-0.009565
12686.0,0.017127
12688.0,-0.010192
12690.0,-0.013732
12692.0,-0.019445
12694.0,-0.029224
12696.0,0.029142
12698.0,0.001571
12700.0,-0.041693
12702.0,-0.011481
12704.0,-0.02482
12706.0,0.013272
12708.0,-0.009361
12710.0,-0.010986
12712.0,0.00967
12714.0,0.024121
12716.0,-0.011445
12718.0,-0.000853
12720.0,-0.014667
12722.0,0.013636
12724.0,0.003472
12726.0,0.001645
12728.0,-0.012373
12730.0,0.021851
12732.0,-0.004693
12734.0,0.017239
12736.0,0.017974
12738.0,-0.017375
12740.0,-0.00323
12742.0,0.003486
12744.0,-0.016373
12746.0,-0.001758
12748.0,0.004464
12750.0,-0.024851
12752.0,-0.004787
12754.0,0.00447
12756.0,-0.007203
12758.0,-0.009067
12760.0,-0.021221
12762.0,-9.8e-05
12764.0,0.002707
12766.0,-0.0019
12768.0,0.019959
12770.0,-0.000209
12772.0,-0.006569
12774.0,0.025599
12776.0,0.010138
12778.0,0.016154
12780.0,0.019045
12782.0,-0.007869
12784.0,-0.014589
12786.0,0.024495
12788.0,-0.028519
12790.0,-0.008003
12792.0,0.023678
12794.0,-0.00998
12796.0,0.011067
12798.0,-0.012028
12800.0,0.035358
12802.0,-0.001191
12804.0,0.012131
12806.0,-0.019858
12808.0,0.010997
12810.0,0.010311
12812.0,-0.0068
12814.0,0.010255
12816.0,-0.003097
12818.0,0.006002
12820.0,-0.007496
12822.0,-0.006736
12824.0,-0.018319
12826.0,0.006646
12828.0,-0.003045
12830.0,-0.010379
12832.0,0.024644
12834.0,0.000404
12836.0,-0.002018
12838.0,-0.010716
12840.0,0.014009
12842.0,0.002424
12844.0,-0.012235
12846.0,-0.00358
12848.0,0.008801
12850.0,0.0017
12852.0,0.017539
12854.0,0.015459
12856.0,0.032918
12858.0,-0.009603
12860.0,-0.000496
12862.0,-0.003453
12864.0,-0.003421
12866.0,0.001219
12868.0,-0.005048
12870.0,0.013606
12872.0,-0.018156
12874.0,0.001017
12876.0,0.009578
12878.0,0.015174
12880.0,3.3e-05
12882.0,0.004907
12884.0,0.001125
12886.0,0.007653
12888.0,-0.002304
12890.0,0.010974
12892.0,0.020393
12894.0,0.031365
12896.0,-0.004639
12898.0,0.012914
12900.0,0.004454
12902.0,0.006713
12904.0,-0.006206
12906.0,0.002192
12908.0,0.008816
12910.0,0.000867
12912.0,-0.005507
12914.0,0.018705
12916.0,0.002382
12918.0,-0.002901
12920.0,0.000804
12922.0,-0.002692
12924.0,-0.010653
12926.0,0.008199
12928.0,-0.00297
12930.0,-0.018013
12932.0,0.015413
12934.0,-0.00474
12936.0,-0.021043
12938.0,-0.000854
12940.0,-0.010231
12942.0,0.002975
12944.0,-0.017356
12946.0,-0.005965
12948.0,-0.024123
12950.0,-0.020238
12952.0,0.001515
12954.0,-0.008225
12956.0,0.02277
12958.0,-0.010509
12960.0,0.002953
12962.0,-0.018204
12964.0,0.022974
12966.0,0.001829
12968.0,-0.02108
12970.0,0.005538
12972.0,-0.004626
12974.0,0.035215
12976.0,0.020384
12978.0,-0.006365
12980.0,0.01701
12982.0,0.015037
12984.0,0.004378
12986.0,0.006673
12988.0,0.010035
12990.0,0.002034
12992.0,0.023694
12994.0,0.015408
12996.0,0.025145
12998.0,0.025405
13000.0,0.024633
13002.0,0.068968
13004.0,0.050177
13006.0,0.061647
13008.0,0.097858
13010.0,0.063921
13012.0,0.060922
13014.0,0.05312
13016.0,0.064576
13018.0,0.10228
13020.0,0.0797
13022.0,0.077026
13024.0,0.114837
13026.0,0.11967
13028.0,0.151953
13030.0,0.111077
13032.0,0.152686
13034.0,0.107302
13036.0,0.16411
13038.0,0.151879
13040.0,0.135292
13042.0,0.168232
13044.0,0.15221
13046.0,0.157313
13048.0,0.146897
13050.0,0.160189
13052.0,0.149095
13054.0,0.120577
13056.0,0.116341
13058.0,0.110943
13060.0,0.128646
13062.0,0.11931
13064.0,0.107364
13066.0,0.092582
13068.0,0.080071
13070.0,0.086536
13072.0,0.086562
13074.0,0.078788
13076.0,0.084799
13078.0,0.079879
13080.0,0.042875
13082.0,0.080238
13084.0,0.059816
13086.0,0.037208
13088.0,0.033888
13090.0,0.032653
13092.0,0.013323
13094.0,0.00793
13096.0,0.015838
13098.0,0.007328
13100.0,-0.031584
13102.0,0.018201
13104.0,-0.020867
13106.0,0.011027
13108.0,-0.000246
13110.0,-0.005337
13112.0,0.01457
13114.0,-0.00948
13116.0,-0.01221
13118.0,0.006094
13120.0,0.004627
13122.0,-0.009274
13124.0,-0.010456
13126.0,-0.01018
13128.0,0.005452
13130.0,0.006895
13132.0,0.012474
13134.0,-0.001321
13136.0,-0.013154
13138.0,0.010836
13140.0,0.03923
13142.0,0.024067
13144.0,-0.014996
13146.0,0.011474
13148.0,-0.001673
13150.0,-0.001401
13152.0,-0.003783
13154.0,-0.012015
13156.0,-0.022334
13158.0,0.0067
13160.0,-0.014916
13162.0,-0.007925
13164.0,-0.005559
13166.0,0.001568
13168.0,-0.006295
13170.0,-0.002031
13172.0,-0.006142
13174.0,0.003955
13176.0,0.00548
13178.0,0.021985
13180.0,0.008578
13182.0,-0.008259
13184.0,0.008607
13186.0,0.013892
13188.0,-0.008145
13190.0,-0.007893
13192.0,-0.033136
13194.0,0.022437
13196.0,0.002454
13198.0,0.020359
13200.0,-0.022366
13202.0,-0.034528
13204.0,0.004927
13206.0,-0.012121
13208.0,0.002866
13210.0,-0.011174
13212.0,0.012514
13214.0,-0.004486
13216.0,-0.002031
13218.0,0.007576
13220.0,-0.006195
13222.0,-0.005277
13224.0,0.018898
13226.0,-0.000993
13228.0,0.003595
13230.0,0.007482
13232.0,0.001186
13234.0,0.006225
13236.0,0.02507
13238.0,0.009804
13240.0,-0.032136
13242.0,-0.051381
13244.0,-0.041744
13246.0,-0.076446
13248.0,-0.095586
13250.0,-0.084604
13252.0,-0.093172
13254.0,-0.077705
13256.0,-0.060622
13258.0,-0.000431
13260.0,0.02118
13262.0,0.123424
13264.0,0.274723
13266.0,0.45853
13268.0,0.623649
13270.0,0.785882
13272.0,0.885608
13274.0,0.991605
13276.0,0.9441
13278.0,0.860107
13280.0,0.697419
13282.0,0.507425
13284.0,0.300591
13286.0,0.148831
13288.0,-0.003725
13290.0,-0.057477
13292.0,-0.114303
13294.0,-0.111281
13296.0,-0.133011
13298.0,-0.114362
13300.0,-0.103084
13302.0,-0.041934
13304.0,-0.047263
13306.0,-0.047251
13308.0,-0.025721
13310.0,-0.030303
13312.0,0.012353
13314.0,0.016196
13316.0,0.002276
13318.0,0.005534
13320.0,-0.019619
13322.0,0.025641
13324.0,0.002191
13326.0,0.033827
13328.0,-0.00467
13330.0,0.011449
13332.0,0.01812
13334.0,0.017688
13336.0,0.005008
13338.0,0.023697
13340.0,0.014498
13342.0,0.010185
13344.0,-0.004269
13346.0,0.031634
13348.0,0.014684
13350.0,0.023083
13352.0,0.01693
13354.0,0.025154
13356.0,0.016902
13358.0,0.063082
13360.0,0.054697
13362.0,0.040809
13364.0,0.038237
13366.0,0.047521
13368.0,0.028653
13370.0,0.054268
13372.0,0.048295
13374.0,0.048035
13376.0,0.049025
13378.0,0.054296
13380.0,0.076887
13382.0,0.075796
13384.0,0.069708
13386.0,0.093834
13388.0,0.09624
13390.0,0.099407
13392.0,0.129311
13394.0,0.110978
13396.0,0.102333
13398.0,0.131705
13400.0,0.122296
13402.0,0.156848
13404.0,0.160568
13406.0,0.155117
13408.0,0.174688
13410.0,0.168808
13412.0,0.175281
13414.0,0.162997
13416.0,0.165379
13418.0,0.19683
13420.0,0.23524
13422.0,0.197759
13424.0,0.219906
13426.0,0.216609
13428.0,0.238771
13430.0,0.223359
13432.0,0.237718
13434.0,0.248468
13436.0,0.237809
13438.0,0.245143
13440.0,0.245725
13442.0,0.257399
13444.0,0.259179
13446.0,0.260594
13448.0,0.25492
13450.0,0.232404
13452.0,0.238706
13454.0,0.249442
13456.0,0.239236
13458.0,0.247285
13460.0,0.211681
13462.0,0.212272
13464.0,0.207588
13466.0,0.218395
13468.0,0.198646
13470.0,0.188399
13472.0,0.199624
13474.0,0.181626
13476.0,0.164653
13478.0,0.17907
13480.0,0.16395
13482.0,0.165045
13484.0,0.158576
13486.0,0.134046
13488.0,0.130929
13490.0,0.125837
13492.0,0.130132
13494.0,0.112549
13496.0,0.121144
13498.0,0.091188
13500.0,0.092494
13502.0,0.104836
13504.0,0.05969
13506.0,0.055724
13508.0,0.078289
13510.0,0.073776
13512.0,0.071949
13514.0,0.065153
13516.0,0.063341
13518.0,0.036994
13520.0,0.040458
13522.0,0.04449
13524.0,0.015567
13526.0,0.011462
13528.0,0.01829
13530.0,0.038244
13532.0,0.032424
13534.0,0.000625
13536.0,0.008963
13538.0,0.007217
13540.0,0.014464
13542.0,0.014667
13544.0,0.010452
13546.0,-0.004128
13548.0,0.023678
13550.0,0.021844
13552.0,-0.008956
13554.0,0.002777
13556.0,0.019784
13558.0,0.008897
13560.0,0.010041
13562.0,-0.003487
13564.0,0.022804
13566.0,-0.013475
13568.0,0.014873
13570.0,0.026732
13572.0,-0.009536
13574.0,0.02017
13576.0,0.012777
13578.0,-0.008433
13580.0,0.002858
13582.0,0.020745
13584.0,-0.005943
13586.0,-0.006044
13588.0,-0.04064
13590.0,-0.023567
13592.0,-0.005364
13594.0,-0.001832
13596.0,0.00849
13598.0,0.012506
13600.0,0.028053
13602.0,0.010044
13604.0,0.041805
13606.0,0.010926
13608.0,0.019397
13610.0,-0.011411
13612.0,0.006601
13614.0,0.013904
13616.0,0.013792
13618.0,-0.006238
13620.0,-0.000458
13622.0,-0.017843
13624.0,0.004996
13626.0,-0.014887
13628.0,0.014037
13630.0,0.003771
13632.0,0.010339
13634.0,0.008652
13636.0,0.006595
13638.0,0.011847
13640.0,0.001209
13642.0,-0.023012
13644.0,0.0184
13646.0,-0.010375
13648.0,0.013316
13650.0,0.007968
13652.0,0.005633
13654.0,0.002478
13656.0,0.004165
13658.0,0.003063
13660.0,0.000472
13662.0,-0.001597
13664.0,0.004416
13666.0,0.008808
13668.0,-0.006004
13670.0,0.003591
13672.0,-0.01906
13674.0,-0.011582
13676.0,-0.024616
13678.0,-0.003731
13680.0,0.005482
13682.0,0.01004
13684.0,-0.019211
13686.0,0.011716
13688.0,-0.014618
13690.0,-0.005787
13692.0,-0.007125
13694.0,0.022476
13696.0,0.002517
13698.0,0.029915
13700.0,0.014125
13702.0,-0.003554
13704.0,0.005825
13706.0,0.019448
13708.0,-0.012226
13710.0,-0.006755
13712.0,-0.000377
13714.0,-0.004418
13716.0,-0.003559
13718.0,0.024394
13720.0,0.002322
13722.0,-0.004343
13724.0,-0.005384
13726.0,-0.019041
13728.0,0.011636
13730.0,-0.008753
13732.0,0.050855
13734.0,0.006703
13736.0,-0.008099
13738.0,-0.017123
13740.0,-0.006537
13742.0,0.005855
13744.0,-0.008232
13746.0,0.009129
13748.0,0.009972
13750.0,0.008125
13752.0,0.00744
13754.0,0.000328
13756.0,-0.009233
13758.0,-0.017479
13760.0,-0.022857
13762.0,-0.006301
13764.0,0.009652
13766.0,-3.5e-05
13768.0,-0.014693
13770.0,0.013006
13772.0,-0.013791
13774.0,-0.016559
13776.0,-0.013954
13778.0,-0.009441
13780.0,-0.001196
13782.0,-0.017661
13784.0,-0.02298
13786.0,0.006092
13788.0,0.003611
13790.0,0.00664
13792.0,0.010608
13794.0,0.000646
13796.0,0.025149
13798.0,-0.003009
13800.0,-0.000914
13802.0,0.018417
13804.0,0.005512
13806.0,-0.002332
13808.0,-0.000264
13810.0,-0.016747
13812.0,0.009351
13814.0,-0.003178
13816.0,0.00618
13818.0,0.018744
13820.0,0.010924
13822.0,0.003691
13824.0,0.005471
13826.0,0.001864
13828.0,0.023925
13830.0,-0.026817
13832.0,-0.006341
13834.0,-0.011417
13836.0,0.006137
13838.0,-0.002362
13840.0,0.001769
13842.0,0.027756
13844.0,0.004582
13846.0,0.012993
13848.0,-0.004552
13850.0,-0.008171
13852.0,-0.012471
13854.0,0.022559
13856.0,-0.012662
13858.0,-0.002994
13860.0,0.037098
13862.0,0.011027
13864.0,0.007429
13866.0,0.005114
13868.0,-0.006186
13870.0,0.017407
13872.0,0.028847
13874.0,0.004441
13876.0,0.013211
13878.0,0.046897
13880.0,0.022109
13882.0,0.042172
13884.0,0.068549
13886.0,0.029231
13888.0,0.045782
13890.0,0.04004
13892.0,0.027502
13894.0,0.084363
13896.0,0.081241
13898.0,0.075801
13900.0,0.093499
13902.0,0.08603
13904.0,0.081232
13906.0,0.099736
13908.0,0.104906
13910.0,0.107953
13912.0,0.143245
13914.0,0.121525
13916.0,0.122881
13918.0,0.145047
13920.0,0.152273
13922.0,0.171651
13924.0,0.153393
13926.0,0.130486
13928.0,0.136761
13930.0,0.161542
13932.0,0.136302
13934.0,0.149162
13936.0,0.164872
13938.0,0.112615
13940.0,0.10659
13942.0,0.11902
13944.0,0.114973
13946.0,0.121124
13948.0,0.078467
13950.0,0.102706
13952.0,0.083297
13954.0,0.055408
13956.0,0.068866
13958.0,0.072384
13960.0,0.084424
13962.0,0.043545
13964.0,0.056693
13966.0,0.022143
13968.0,0.051182
13970.0,0.03262
13972.0,0.049534
13974.0,0.00401
13976.0,0.003495
13978.0,-0.007536
13980.0,0.039537
13982.0,0.005151
13984.0,-0.016274
13986.0,-0.002612
13988.0,0.01863
13990.0,0.014502
13992.0,0.010467
13994.0,-0.015642
13996.0,0.000183
13998.0,-0.02632
14000.0,-0.020028
14002.0,0.009752
14004.0,0.013684
14006.0,-0.002691
14008.0,-0.025676
14010.0,-0.013513
14012.0,-0.005354
14014.0,0.022934
14016.0,-0.009263
14018.0,-0.021109
14020.0,-0.017164
14022.0,-0.012588
14024.0,-0.008015
14026.0,-0.003904
14028.0,0.028487
14030.0,-0.008695
14032.0,-0.031101
14034.0,0.01446
14036.0,-0.011499
14038.0,-0.011353
14040.0,-0.008542
14042.0,0.004189
14044.0,0.001567
14046.0,0.006386
14048.0,-0.005242
14050.0,0.000503
14052.0,-0.01603
14054.0,-0.01576
14056.0,-0.009203
14058.0,-0.006939
14060.0,-0.025138
14062.0,-0.017944
14064.0,0.017432
14066.0,0.016418
14068.0,0.023053
14070.0,0.016224
14072.0,0.012442
14074.0,0.024602
14076.0,0.008947
14078.0,-0.005108
14080.0,-0.004564
14082.0,0.0044
14084.0,0.005877
14086.0,-0.002363
14088.0,-0.005141
14090.0,-0.000894
14092.0,-0.011775
14094.0,0.032269
14096.0,0.007271
14098.0,-0.0292
14100.0,0.012319
14102.0,-0.012618
14104.0,-0.004574
14106.0,-0.002465
14108.0,0.008045
14110.0,-0.009284
14112.0,-0.010545
14114.0,-0.025107
14116.0,-0.000674
14118.0,-0.048187
14120.0,-0.074129
14122.0,-0.091286
14124.0,-0.076281
14126.0,-0.073851
14128.0,-0.034526
14130.0,0.02904
14132.0,0.102573
14134.0,0.256628
14136.0,0.414835
14138.0,0.601064
14140.0,0.771508
14142.0,0.911305
14144.0,0.961551
14146.0,0.93273
14148.0,0.828318
14150.0,0.647655
14152.0,0.493174
14154.0,0.296485
14156.0,0.123601
14158.0,0.015145
14160.0,-0.079953
14162.0,-0.106155
14164.0,-0.143462
14166.0,-0.117215
14168.0,-0.098525
14170.0,-0.084778
14172.0,-0.047817
14174.0,-0.051641
14176.0,-0.023424
14178.0,-0.006513
14180.0,0.00029
14182.0,-0.003036
14184.0,0.024183
14186.0,0.01333
14188.0,0.012481
14190.0,-0.006552
14192.0,0.005787
14194.0,-0.002311
14196.0,0.035902
14198.0,0.012647
14200.0,-0.002748
14202.0,0.021819
14204.0,0.026624
14206.0,0.003788
14208.0,0.016179
14210.0,0.051514
14212.0,0.017943
14214.0,0.02457
14216.0,0.066994
14218.0,0.024166
14220.0,0.009897
14222.0,0.01629
14224.0,0.035236
14226.0,0.047965
14228.0,0.027769
14230.0,0.014918
14232.0,0.056991
14234.0,0.050209
14236.0,0.050874
14238.0,0.050368
14240.0,0.084863
14242.0,0.071902
14244.0,0.061205
14246.0,0.071974
14248.0,0.086335
14250.0,0.078423
14252.0,0.098926
14254.0,0.130198
14256.0,0.133128
14258.0,0.1427
14260.0,0.149926
14262.0,0.145469
14264.0,0.15627
14266.0,0.133272
14268.0,0.177008
14270.0,0.182669
14272.0,0.184365
14274.0,0.191456
14276.0,0.179499
14278.0,0.195057
14280.0,0.185533
14282.0,0.207529
14284.0,0.216567
14286.0,0.216251
14288.0,0.24737
14290.0,0.222809
14292.0,0.243623
14294.0,0.245116
14296.0,0.24236
14298.0,0.255206
14300.0,0.254346
14302.0,0.244107
14304.0,0.268996
14306.0,0.247581
14308.0,0.257715
14310.0,0.232133
14312.0,0.231702
14314.0,0.244699
14316.0,0.272385
14318.0,0.216667
14320.0,0.213326
14322.0,0.214588
14324.0,0.214001
14326.0,0.215558
14328.0,0.223553
14330.0,0.19958
14332.0,0.203852
14334.0,0.188614
14336.0,0.17277
14338.0,0.166672
14340.0,0.173311
14342.0,0.161284
14344.0,0.170285
14346.0,0.146349
14348.0,0.134202
14350.0,0.111903
14352.0,0.110017
14354.0,0.119158
14356.0,0.111355
14358.0,0.123841
14360.0,0.084248
14362.0,0.096201
14364.0,0.079565
14366.0,0.044707
14368.0,0.052297
14370.0,0.067355
14372.0,0.053329
14374.0,0.044032
14376.0,0.065107
14378.0,0.041637
14380.0,0.044996
14382.0,0.048152
14384.0,0.027001
14386.0,0.039771
14388.0,0.012997
14390.0,0.006016
14392.0,0.038218
14394.0,0.038682
14396.0,0.028277
14398.0,0.004852
14400.0,0.00911
14402.0,-0.001061
14404.0,-0.002518
14406.0,0.011666
14408.0,0.001769
14410.0,0.024277
14412.0,-0.015982
14414.0,-0.001727
14416.0,-0.012564
14418.0,-0.014478
14420.0,0.03093
14422.0,0.026076
14424.0,0.008946
14426.0,0.01013
14428.0,0.010884
14430.0,0.002414
14432.0,-0.043669
14434.0,-0.031393
14436.0,0.009368
14438.0,-0.036355
14440.0,0.021166
14442.0,0.012491
14444.0,0.004946
14446.0,0.005758
14448.0,0.010462
14450.0,-0.008597
14452.0,0.026895
14454.0,-0.003735
14456.0,-0.013398
14458.0,0.026944
14460.0,0.001983
14462.0,0.004789
14464.0,0.017402
14466.0,0.031975
14468.0,-0.000618
14470.0,0.00144
14472.0,-0.020467
14474.0,0.000303
14476.0,0.024337
14478.0,-0.011353
14480.0,-0.013444
14482.0,-0.024987
14484.0,-0.018944
14486.0,-0.01949
14488.0,3e-05
14490.0,0.004018
14492.0,-0.029771
14494.0,0.006106
14496.0,0.01885
14498.0,0.01229
14500.0,-0.01125
14502.0,0.011923
14504.0,-0.007621
14506.0,-0.016525
14508.0,-0.020826
14510.0,-0.022017
14512.0,-0.005099
14514.0,0.008637
14516.0,-0.026601
14518.0,-0.029764
14520.0,0.017012
14522.0,-0.014168
14524.0,0.03247
14526.0,0.005546
14528.0,-0.021157
14530.0,0.013503
14532.0,0.014845
14534.0,-0.025331
14536.0,-0.003966
14538.0,0.019991
14540.0,-0.022684
14542.0,0.006094
14544.0,0.004769
14546.0,0.028503
14548.0,0.019169
14550.0,-0.00607
14552.0,-0.021303
14554.0,-0.005364
14556.0,0.001182
14558.0,-0.000571
14560.0,-0.006673
14562.0,-0.014267
14564.0,0.018485
14566.0,-0.005899
14568.0,-0.01123
14570.0,0.0029
14572.0,0.001827
14574.0,-0.00047
14576.0,0.017476
14578.0,-0.015183
14580.0,0.003694
14582.0,0.014813
14584.0,-0.006925
14586.0,0.001996
14588.0,0.009481
14590.0,0.007594
14592.0,0.000144
14594.0,-0.018318
