0.0,0.013085
2.0,-0.023374
4.0,0.009576
6.0,0.015446
8.0,-0.015641
10.0,0.029347
12.0,-0.00788
14.0,-0.047728
16.0,-0.001762
18.0,0.008196
20.0,-0.009888
22.0,0.012286
24.0,0.028253
26.0,0.006005
28.0,0.009874
30.0,0.020817
32.0,0.000825
34.0,0.016329
36.0,-0.00315
38.0,-0.021997
40.0,0.005964
42.0,-0.013281
44.0,-0.002423
46.0,-0.000988
48.0,0.005205
50.0,-0.042588
52.0,-0.000889
54.0,-0.021704
56.0,-0.020066
58.0,0.022825
60.0,-0.023578
62.0,0.026212
64.0,-0.014889
66.0,0.018001
68.0,0.012302
70.0,-0.010288
72.0,0.01894
74.0,-0.057315
76.0,0.003796
78.0,-0.003646
80.0,0.014303
82.0,-0.010279
84.0,0.006634
86.0,-0.005613
88.0,0.012541
90.0,0.016227
92.0,-0.026915
94.0,0.03694
96.0,-0.001449
98.0,0.042948
100.0,-0.011444
102.0,0.00103
104.0,0.028591
106.0,-0.006198
108.0,0.020489
110.0,-0.004915
112.0,0.002632
114.0,-0.001954
116.0,0.004558
118.0,0.039963
120.0,-0.012944
122.0,0.005925
124.0,-0.006269
126.0,0.001344
128.0,0.000399
130.0,0.002554
132.0,0.010936
134.0,0.044363
136.0,-0.028593
138.0,-0.003592
140.0,0.009944
142.0,0.02636
144.0,-0.025741
146.0,0.044063
148.0,0.014022
150.0,0.042422
152.0,0.018213
154.0,0.002121
156.0,-0.011645
158.0,0.00657
160.0,0.00598
162.0,-0.028491
164.0,0.002571
166.0,-0.005888
168.0,0.008617
170.0,-0.022724
172.0,-0.017821
174.0,-0.009376
176.0,0.006134
178.0,-0.014078
180.0,-0.038139
182.0,-0.02682
184.0,0.018028
186.0,0.013622
188.0,-0.004369
190.0,0.011182
192.0,-0.017059
194.0,-0.00905
196.0,-0.00715
198.0,0.023333
200.0,0.001248
202.0,-0.020787
204.0,-0.004826
206.0,-0.012149
208.0,0.019097
210.0,0.010996
212.0,0.007967
214.0,-0.012738
216.0,0.017022
218.0,0.011739
220.0,-0.032089
222.0,-0.002461
224.0,0.006351
226.0,0.003215
228.0,0.003788
230.0,0.006873
232.0,0.017872
234.0,0.01711
236.0,0.002498
238.0,-0.019684
240.0,-0.044391
242.0,-0.021135
244.0,-0.006582
246.0,0.007335
248.0,0.039422
250.0,0.014591
252.0,-0.026186
254.0,0.011002
256.0,-0.013475
258.0,-0.019094
260.0,-0.008441
262.0,0.017841
264.0,-0.00478
266.0,0.013603
268.0,-0.002122
270.0,-0.010342
272.0,0.000747
274.0,0.034402
276.0,-0.001107
278.0,0.02184
280.0,0.027346
282.0,0.029279
284.0,0.004768
286.0,0.018456
288.0,0.007541
290.0,-0.02557
292.0,-0.011631
294.0,-0.008426
296.0,0.036217
298.0,-0.021094
300.0,-0.019811
302.0,0.011739
304.0,0.01122
306.0,-0.000378
308.0,-0.022715
310.0,-0.062111
312.0,0.030894
314.0,-0.008343
316.0,0.007128
318.0,-0.012334
320.0,-0.020866
322.0,-0.01115
324.0,0.02495
326.0,0.014973
328.0,0.048071
330.0,-0.017176
332.0,-0.008226
334.0,-0.000839
336.0,0.018749
338.0,0.026345
340.0,-0.019608
342.0,-0.001359
344.0,-0.01579
346.0,-0.018023
348.0,0.016033
350.0,-0.001026
352.0,0.008784
354.0,0.0222
356.0,0.01504
358.0,0.040078
360.0,0.021355
362.0,0.00308
364.0,-0.010088
366.0,0.004137
368.0,0.01686
370.0,0.005442
372.0,-0.019936
374.0,-0.006686
376.0,-0.017993
378.0,0.039942
380.0,0.019171
382.0,-0.023521
384.0,-0.002815
386.0,0.014966
388.0,0.007614
390.0,-0.004971
392.0,-0.050971
394.0,0.027001
396.0,-0.017284
398.0,0.022643
400.0,0.02011
402.0,-0.00812
404.0,-0.004097
406.0,0.003046
408.0,-0.005574
410.0,-0.001909
412.0,-0.004752
414.0,0.035235
416.0,0.018633
418.0,-0.022611
420.0,-0.022946
422.0,0.007997
424.0,0.014771
426.0,-0.003153
428.0,-0.045563
430.0,0.030871
432.0,-0.027549
434.0,0.000829
436.0,-0.011969
438.0,-0.013426
440.0,-0.023212
442.0,-0.019074
444.0,0.01569
446.0,0.037665
448.0,0.002144
450.0,0.007141
452.0,0.011972
454.0,0.016636
456.0,-0.009839
458.0,0.018197
460.0,-0.004041
462.0,-0.008436
464.0,-0.060217
466.0,-0.001446
468.0,-0.030357
470.0,0.008067
472.0,0.006538
474.0,-0.024928
476.0,-0.00043
478.0,-0.007021
480.0,-0.009964
482.0,0.01094
484.0,0.00708
486.0,-0.011744
488.0,-0.034324
490.0,0.012487
492.0,-0.027127
494.0,-0.012507
496.0,-0.001386
498.0,0.012704
500.0,0.008184
502.0,-0.00846
504.0,0.009768
506.0,0.003891
508.0,0.035353
510.0,0.003614
512.0,-0.004459
514.0,-0.027574
516.0,-0.004743
518.0,-0.022044
520.0,-0.03787
522.0,-0.017293
524.0,0.01852
526.0,0.019446
528.0,-0.001932
530.0,-0.021252
532.0,-0.011288
534.0,-0.030896
536.0,0.009877
538.0,0.0131
540.0,-0.010933
542.0,-0.006538
544.0,-0.004723
546.0,-0.01744
548.0,0.005996
550.0,-0.024018
552.0,-0.013343
554.0,0.02002
556.0,-0.01364
558.0,0.008112
560.0,0.019337
562.0,0.012453
564.0,0.01772
566.0,0.004851
568.0,0.019494
570.0,-0.000976
572.0,-0.024844
574.0,-0.003209
576.0,-0.00653
578.0,-0.032361
580.0,0.00752
582.0,0.015142
584.0,-0.027673
586.0,-0.021024
588.0,-0.00817
590.0,-0.011934
592.0,0.023679
594.0,-0.011026
596.0,0.005438
598.0,-0.024142
600.0,-0.007909
602.0,0.009195
604.0,-0.016724
606.0,-0.050693
608.0,0.00737
610.0,0.008171
612.0,0.014836
614.0,0.022084
616.0,-0.01866
618.0,-0.02218
620.0,-0.041563
622.0,0.008308
624.0,-0.003314
626.0,-0.008287
628.0,0.032883
630.0,-0.002849
632.0,-0.00211
634.0,-0.010598
636.0,0.009733
638.0,-0.012443
640.0,0.015154
642.0,0.029958
644.0,-0.010974
646.0,0.022597
648.0,-0.03979
650.0,-0.001576
652.0,-0.001447
654.0,-0.001569
656.0,0.016668
658.0,0.048526
660.0,0.032289
662.0,0.016714
664.0,-0.000547
666.0,-0.014065
668.0,0.001315
670.0,-0.007436
672.0,-0.016112
674.0,0.00539
676.0,0.025853
678.0,-0.022876
680.0,0.027794
682.0,0.008378
684.0,0.049793
686.0,-0.011513
688.0,0.022431
690.0,-0.023707
692.0,-0.015203
694.0,0.002702
696.0,0.004819
698.0,0.015866
700.0,-0.02229
702.0,-0.003737
704.0,-0.004465
706.0,0.000667
708.0,0.018289
710.0,0.034747
712.0,-0.026469
714.0,0.010828
716.0,0.000632
718.0,0.008575
720.0,0.018864
722.0,0.016743
724.0,-0.027904
726.0,0.027828
728.0,0.012688
730.0,-0.005318
732.0,0.025214
734.0,0.012625
736.0,-0.031884
738.0,0.020769
740.0,0.047247
742.0,0.018378
744.0,0.002602
746.0,0.040825
748.0,0.011641
750.0,0.044791
752.0,0.05339
754.0,0.032961
756.0,0.006405
758.0,0.055449
760.0,0.049476
762.0,0.035108
764.0,0.067287
766.0,0.054513
768.0,0.014469
770.0,0.071658
772.0,0.055414
774.0,0.058354
776.0,0.107947
778.0,0.073872
780.0,0.087709
782.0,0.079694
784.0,0.092347
786.0,0.114183
788.0,0.124466
790.0,0.152535
792.0,0.158551
794.0,0.127424
796.0,0.152203
798.0,0.165993
800.0,0.171808
802.0,0.181481
804.0,0.224906
806.0,0.220951
808.0,0.238662
810.0,0.248522
812.0,0.247397
814.0,0.240897
816.0,0.274428
818.0,0.29383
820.0,0.323178
822.0,0.316677
824.0,0.338605
826.0,0.353434
828.0,0.36776
830.0,0.427471
832.0,0.441242
834.0,0.465198
836.0,0.482528
838.0,0.451961
840.0,0.521945
842.0,0.507628
844.0,0.545827
846.0,0.544918
848.0,0.568199
850.0,0.564055
852.0,0.565713
854.0,0.624129
856.0,0.649527
858.0,0.679694
860.0,0.694225
862.0,0.727548
864.0,0.742528
866.0,0.753311
868.0,0.763712
870.0,0.786123
872.0,0.838524
874.0,0.812867
876.0,0.83444
878.0,0.871194
880.0,0.871645
882.0,0.894027
884.0,0.922253
886.0,0.911309
888.0,0.902155
890.0,0.954434
892.0,0.904193
894.0,0.977825
896.0,0.959876
898.0,0.964985
900.0,0.982104
902.0,0.962789
904.0,0.961262
906.0,0.955908
908.0,0.991296
910.0,0.984948
912.0,0.954073
914.0,1.008078
916.0,0.983758
918.0,1.010866
920.0,0.993694
922.0,0.988596
924.0,0.989612
926.0,0.958889
928.0,0.970628
930.0,0.958504
932.0,0.93412
934.0,0.961679
936.0,0.943316
938.0,0.918333
940.0,0.888778
942.0,0.868542
944.0,0.863884
946.0,0.844863
948.0,0.84802
950.0,0.813893
952.0,0.792296
954.0,0.773234
956.0,0.751142
958.0,0.760984
960.0,0.714683
962.0,0.691756
964.0,0.699064
966.0,0.642787
968.0,0.605922
970.0,0.631644
972.0,0.61436
974.0,0.590429
976.0,0.539276
978.0,0.530526
980.0,0.481229
982.0,0.491158
984.0,0.477829
986.0,0.445418
988.0,0.448522
990.0,0.429521
992.0,0.397409
994.0,0.401331
996.0,0.361312
998.0,0.352232
1000.0,0.357328
1002.0,0.351551
1004.0,0.267854
1006.0,0.275607
1008.0,0.244414
1010.0,0.255676
1012.0,0.241687
1014.0,0.231521
1016.0,0.186213
1018.0,0.206402
1020.0,0.173001
1022.0,0.156172
1024.0,0.166539
1026.0,0.15206
1028.0,0.158867
1030.0,0.124781
1032.0,0.151054
1034.0,0.109214
1036.0,0.092206
1038.0,0.079229
1040.0,0.09111
1042.0,0.12421
1044.0,0.079886
1046.0,0.05015
1048.0,0.038572
1050.0,0.050776
1052.0,0.016943
1054.0,0.088009
1056.0,0.021274
1058.0,0.000853
1060.0,0.016214
1062.0,-0.021824
1064.0,-0.024379
1066.0,-0.027933
1068.0,-0.032911
1070.0,-0.023572
1072.0,-0.030658
1074.0,-0.035252
1076.0,-0.001452
1078.0,-0.067928
1080.0,0.000503
1082.0,-0.035032
1084.0,0.017131
1086.0,0.006621
1088.0,-0.020945
1090.0,-0.005318
1092.0,0.021713
1094.0,0.007937
1096.0,0.030051
1098.0,0.082258
1100.0,0.048798
1102.0,0.071521
1104.0,0.066804
1106.0,0.080227
1108.0,0.08703
1110.0,0.110754
1112.0,0.127499
1114.0,0.115482
1116.0,0.06115
1118.0,0.09203
1120.0,0.14016
1122.0,0.126892
1124.0,0.128249
1126.0,0.139597
1128.0,0.113686
1130.0,0.11139
1132.0,0.117388
1134.0,0.135982
1136.0,0.14527
1138.0,0.161492
1140.0,0.153952
1142.0,0.13893
1144.0,0.163456
1146.0,0.132666
1148.0,0.156828
1150.0,0.146489
1152.0,0.149611
1154.0,0.141523
1156.0,0.154838
1158.0,0.128744
1160.0,0.139966
1162.0,0.153971
1164.0,0.16238
1166.0,0.126523
1168.0,0.165195
1170.0,0.161346
1172.0,0.153923
1174.0,0.151988
1176.0,0.154261
1178.0,0.128372
1180.0,0.096709
1182.0,0.107152
1184.0,0.141584
1186.0,0.112275
1188.0,0.142802
1190.0,0.130109
1192.0,0.099234
1194.0,0.128953
1196.0,0.051719
1198.0,0.114316
1200.0,0.101895
1202.0,0.083161
1204.0,0.068907
1206.0,0.062116
1208.0,0.056893
1210.0,0.075115
1212.0,0.0624
1214.0,0.047048
1216.0,0.045684
1218.0,0.071266
1220.0,0.053562
1222.0,0.039772
1224.0,0.070113
1226.0,0.053721
1228.0,0.02938
1230.0,0.0543
1232.0,0.022328
1234.0,0.030252
1236.0,0.044657
1238.0,0.042044
1240.0,0.014124
1242.0,0.052139
1244.0,0.036273
1246.0,0.033579
1248.0,0.021986
1250.0,0.010879
1252.0,0.011018
1254.0,0.045879
1256.0,0.022152
1258.0,0.001358
1260.0,0.007621
1262.0,-0.013907
1264.0,0.000675
1266.0,-0.03603
1268.0,-0.027787
1270.0,-0.010875
1272.0,0.047799
1274.0,0.002356
1276.0,0.013433
1278.0,-0.006135
1280.0,0.043312
1282.0,0.016493
1284.0,-0.007706
1286.0,-0.005543
1288.0,0.002319
1290.0,-0.018241
1292.0,-0.003001
1294.0,0.010721
1296.0,-0.028713
1298.0,0.025612
1300.0,0.025665
1302.0,0.004027
1304.0,0.014252
1306.0,0.006084
1308.0,-0.009728
1310.0,0.017995
1312.0,0.006028
1314.0,-0.005617
1316.0,-0.025841
1318.0,-0.009552
1320.0,0.022168
1322.0,0.014206
1324.0,-0.007993
1326.0,0.027426
1328.0,-0.004074
1330.0,-0.0005
1332.0,-0.001795
1334.0,-0.028022
1336.0,0.007773
1338.0,0.018475
1340.0,-0.003094
1342.0,0.048747
1344.0,-0.024619
1346.0,0.005043
1348.0,-0.004871
1350.0,0.012327
1352.0,0.003318
1354.0,0.010048
1356.0,-0.014481
1358.0,0.008422
1360.0,0.015091
1362.0,-0.002415
1364.0,-0.033153
1366.0,-0.032661
1368.0,-0.021352
1370.0,-0.00032
1372.0,-0.028709
1374.0,-0.002765
1376.0,-1.2e-05
1378.0,-0.022449
1380.0,0.012919
1382.0,-0.023007
1384.0,0.005226
1386.0,0.036093
1388.0,-0.03008
1390.0,-0.003304
1392.0,0.024782
1394.0,-0.000246
1396.0,-0.018224
1398.0,-0.004006
1400.0,-0.030204
1402.0,-0.007949
1404.0,0.0016
1406.0,-0.013046
1408.0,-0.005125
1410.0,-0.037501
1412.0,0.024283
1414.0,-0.011459
1416.0,0.001579
1418.0,-0.004518
1420.0,-0.004243
1422.0,0.005988
1424.0,0.008178
1426.0,-0.006511
1428.0,-0.01746
1430.0,0.022963
1432.0,-0.033194
1434.0,0.014374
1436.0,-0.022903
1438.0,-0.009185
1440.0,0.008836
1442.0,0.001017
1444.0,-0.006884
1446.0,0.011872
1448.0,0.003505
1450.0,-0.012042
1452.0,-0.008462
1454.0,-0.024078
1456.0,-0.000626
1458.0,0.040144
1460.0,0.007537
1462.0,0.011545
1464.0,-0.00812
1466.0,-0.033159
1468.0,-0.008909
1470.0,0.005419
1472.0,-0.01761
1474.0,-0.023414
1476.0,-0.00128
1478.0,0.0123
1480.0,-0.015901
1482.0,0.0349
1484.0,-0.011474
1486.0,-0.004138
1488.0,-0.024764
1490.0,0.016628
1492.0,-0.036945
1494.0,-0.004554
1496.0,0.004393
1498.0,0.01137
1500.0,0.011109
1502.0,-0.021385
1504.0,0.010655
1506.0,-0.008027
1508.0,-0.042442
1510.0,0.040167
1512.0,0.007288
1514.0,0.012302
1516.0,0.019617
1518.0,-0.001729
1520.0,-0.012461
1522.0,0.009623
1524.0,0.019384
1526.0,0.0261
1528.0,-0.024269
1530.0,0.019723
1532.0,-0.032503
1534.0,0.011806
1536.0,-0.011448
1538.0,0.014517
1540.0,0.017308
1542.0,0.011127
1544.0,0.018913
1546.0,0.016793
1548.0,0.004904
1550.0,0.029708
1552.0,0.000863
1554.0,-0.009846
1556.0,0.006641
1558.0,-0.012376
1560.0,0.002706
1562.0,0.002947
1564.0,0.037552
1566.0,0.041076
1568.0,-0.023044
1570.0,-0.012831
1572.0,0.021688
1574.0,0.012156
1576.0,0.042463
1578.0,0.026349
1580.0,0.005105
1582.0,0.063008
1584.0,-0.020055
1586.0,0.02051
1588.0,0.036193
1590.0,0.027001
1592.0,-0.000464
1594.0,-0.009451
1596.0,0.033247
1598.0,0.012606
1600.0,0.017303
1602.0,0.028692
1604.0,0.020605
1606.0,0.056472
1608.0,0.055213
1610.0,7.5e-05
1612.0,0.043811
1614.0,0.033575
1616.0,0.009626
1618.0,0.046173
1620.0,0.047629
1622.0,0.033363
1624.0,0.060616
1626.0,0.085898
1628.0,0.047229
1630.0,0.04487
1632.0,0.059588
1634.0,0.086899
1636.0,0.115874
1638.0,0.07707
1640.0,0.07995
1642.0,0.088158
1644.0,0.099969
1646.0,0.156516
1648.0,0.146785
1650.0,0.088547
1652.0,0.136125
1654.0,0.157838
1656.0,0.150718
1658.0,0.168829
1660.0,0.180389
1662.0,0.206964
1664.0,0.244214
1666.0,0.165857
1668.0,0.244862
1670.0,0.285135
1672.0,0.274759
1674.0,0.280774
1676.0,0.309172
1678.0,0.334337
1680.0,0.350589
1682.0,0.357615
1684.0,0.336509
1686.0,0.390184
1688.0,0.418871
1690.0,0.398883
1692.0,0.390984
1694.0,0.462178
1696.0,0.495906
1698.0,0.467534
1700.0,0.530118
1702.0,0.51394
1704.0,0.548812
1706.0,0.58857
1708.0,0.56882
1710.0,0.623876
1712.0,0.622951
1714.0,0.68291
1716.0,0.665598
1718.0,0.697141
1720.0,0.720891
1722.0,0.722383
1724.0,0.750469
1726.0,0.764387
1728.0,0.813138
1730.0,0.795097
1732.0,0.81581
1734.0,0.828376
1736.0,0.851293
1738.0,0.884424
1740.0,0.883658
1742.0,0.895777
1744.0,0.903825
1746.0,0.922946
1748.0,0.954562
1750.0,0.942632
1752.0,0.980342
1754.0,1.013042
1756.0,0.974322
1758.0,1.013411
1760.0,0.959743
1762.0,0.986169
1764.0,1.01102
1766.0,1.008581
1768.0,0.982997
1770.0,1.014716
1772.0,1.052558
1774.0,1.011849
1776.0,0.971583
1778.0,0.973051
1780.0,0.96947
1782.0,0.981829
1784.0,1.00274
1786.0,0.979573
1788.0,0.993941
1790.0,0.946562
1792.0,0.940055
1794.0,0.950543
1796.0,0.906257
1798.0,0.921914
1800.0,0.901543
1802.0,0.841742
1804.0,0.838223
1806.0,0.82356
1808.0,0.804048
1810.0,0.797104
1812.0,0.759828
1814.0,0.78323
1816.0,0.749159
1818.0,0.733251
1820.0,0.714222
1822.0,0.654486
1824.0,0.674069
1826.0,0.623285
1828.0,0.652582
1830.0,0.566408
1832.0,0.599572
1834.0,0.53797
1836.0,0.536047
1838.0,0.530925
1840.0,0.473894
1842.0,0.466748
1844.0,0.469753
1846.0,0.410529
1848.0,0.378423
1850.0,0.408105
1852.0,0.401162
1854.0,0.395672
1856.0,0.357772
1858.0,0.338137
1860.0,0.337457
1862.0,0.301796
1864.0,0.296623
1866.0,0.21673
1868.0,0.255668
1870.0,0.224439
1872.0,0.208458
1874.0,0.217037
1876.0,0.198814
1878.0,0.225523
1880.0,0.213433
1882.0,0.187116
1884.0,0.198697
1886.0,0.151303
1888.0,0.103333
1890.0,0.106298
1892.0,0.132655
1894.0,0.116713
1896.0,0.108087
1898.0,0.097569
1900.0,0.053249
1902.0,0.093992
1904.0,0.0876
1906.0,0.08554
1908.0,0.059026
1910.0,0.050083
1912.0,0.063998
1914.0,0.005291
1916.0,0.032217
1918.0,0.024094
1920.0,0.050327
1922.0,0.043928
1924.0,0.039642
1926.0,-0.00301
1928.0,-0.020377
1930.0,-0.01249
1932.0,-0.008528
1934.0,-0.034561
1936.0,-0.090419
1938.0,-0.031608
1940.0,-0.048747
1942.0,-0.075073
1944.0,-0.057247
1946.0,-0.042376
1948.0,-0.043811
1950.0,-0.032995
1952.0,-0.020024
1954.0,-0.03387
1956.0,0.006721
1958.0,-0.004272
1960.0,-0.017191
1962.0,0.000161
1964.0,0.01189
1966.0,0.054087
1968.0,0.048057
1970.0,0.044397
1972.0,0.059589
1974.0,0.055508
1976.0,0.063459
1978.0,0.087483
1980.0,0.085247
1982.0,0.085648
1984.0,0.088863
1986.0,0.087428
1988.0,0.112668
1990.0,0.100404
1992.0,0.118132
1994.0,0.07702
1996.0,0.140921
1998.0,0.110398
2000.0,0.100578
2002.0,0.141103
2004.0,0.154708
2006.0,0.154241
2008.0,0.148262
2010.0,0.136844
2012.0,0.138461
2014.0,0.171019
2016.0,0.137603
2018.0,0.158939
2020.0,0.168558
2022.0,0.166149
2024.0,0.11003
2026.0,0.150403
2028.0,0.105014
2030.0,0.168413
2032.0,0.16362
2034.0,0.141143
2036.0,0.122174
2038.0,0.134046
2040.0,0.124981
2042.0,0.152014
2044.0,0.140687
2046.0,0.173313
2048.0,0.119675
2050.0,0.105968
2052.0,0.17135
2054.0,0.112809
2056.0,0.095063
2058.0,0.133019
2060.0,0.148508
2062.0,0.115668
2064.0,0.119499
2066.0,0.121456
2068.0,0.089005
2070.0,0.100155
2072.0,0.111655
2074.0,0.082255
2076.0,0.124701
2078.0,0.055058
2080.0,0.058582
2082.0,0.065583
2084.0,0.055936
2086.0,0.059292
2088.0,0.075949
2090.0,0.095551
2092.0,0.025132
2094.0,0.036715
2096.0,0.02081
2098.0,0.04713
2100.0,0.030075
2102.0,0.02333
2104.0,0.027686
2106.0,0.040595
2108.0,0.015114
2110.0,0.029024
2112.0,0.001182
2114.0,0.057487
2116.0,0.021579
2118.0,0.049003
2120.0,0.05725
2122.0,0.020454
2124.0,-0.013985
2126.0,0.023126
2128.0,-0.007726
2130.0,0.02705
2132.0,-0.004276
2134.0,0.021002
2136.0,0.016216
2138.0,-0.021374
2140.0,0.036714
2142.0,0.063979
2144.0,-0.01353
2146.0,0.004117
2148.0,-0.014463
2150.0,0.005363
2152.0,0.004754
2154.0,0.011464
2156.0,0.01973
2158.0,0.015221
2160.0,-0.016148
2162.0,-0.038025
2164.0,-0.000681
2166.0,-0.000871
2168.0,0.01596
2170.0,0.031802
2172.0,0.007267
2174.0,-0.007594
2176.0,0.002673
2178.0,-0.007622
2180.0,0.003614
2182.0,-0.011808
2184.0,0.00946
2186.0,-0.015026
2188.0,-0.024551
2190.0,0.004147
2192.0,0.008881
2194.0,0.009545
2196.0,-0.023493
2198.0,-0.033757
2200.0,-0.028839
2202.0,0.025402
2204.0,0.017291
2206.0,0.010659
2208.0,0.027436
2210.0,0.021051
2212.0,0.025727
2214.0,0.000876
2216.0,0.037036
2218.0,0.030574
2220.0,-0.017737
2222.0,0.016824
2224.0,0.031979
2226.0,0.048471
2228.0,-0.007967
2230.0,0.008758
2232.0,0.008689
2234.0,-0.016709
2236.0,-0.00233
2238.0,0.003785
2240.0,-0.026457
2242.0,0.006451
2244.0,-0.010401
2246.0,-0.01655
2248.0,-0.015865
2250.0,0.016676
2252.0,0.02053
2254.0,-0.006512
2256.0,-0.004172
2258.0,-0.043529
2260.0,-0.000526
2262.0,0.033162
2264.0,0.010328
2266.0,0.022216
2268.0,0.002938
2270.0,-0.013304
2272.0,-0.000259
2274.0,0.024875
2276.0,0.016696
2278.0,-0.017036
2280.0,-0.015366
2282.0,0.014185
2284.0,0.008065
2286.0,0.033095
2288.0,-0.017218
2290.0,-0.037585
2292.0,0.001035
2294.0,-0.028829
2296.0,-0.008632
2298.0,-0.006631
2300.0,0.001787
2302.0,0.044842
2304.0,0.015468
2306.0,-0.005362
2308.0,-0.013471
2310.0,0.025602
2312.0,-0.00114
2314.0,-0.023822
2316.0,0.008921
2318.0,-0.018992
2320.0,0.012444
2322.0,0.036511
2324.0,-0.020107
2326.0,0.007065
2328.0,-0.006703
2330.0,-0.0057
2332.0,0.022676
2334.0,-0.041765
2336.0,-0.013986
2338.0,0.02783
2340.0,-0.0114
2342.0,-0.022542
2344.0,-0.007352
2346.0,0.004431
2348.0,0.008661
2350.0,0.017959
2352.0,0.02931
2354.0,0.016337
2356.0,0.011475
2358.0,0.012668
2360.0,-0.01981
2362.0,0.013771
2364.0,0.028637
2366.0,-0.008313
2368.0,0.013269
2370.0,0.019554
2372.0,0.003339
2374.0,0.004898
2376.0,-0.018817
2378.0,-0.011018
2380.0,0.011716
2382.0,0.035442
2384.0,-0.018346
2386.0,0.029477
2388.0,-0.002279
2390.0,-0.015887
2392.0,-0.042362
2394.0,-0.004705
2396.0,0.010447
2398.0,-0.024529
2400.0,-0.000368
2402.0,0.002672
2404.0,0.012517
2406.0,0.008566
2408.0,0.003321
2410.0,0.019053
2412.0,0.011798
2414.0,-0.001762
2416.0,-0.004121
2418.0,-0.001157
2420.0,-0.041442
2422.0,0.004604
2424.0,-0.013115
2426.0,0.019982
2428.0,0.006536
2430.0,0.012163
2432.0,-0.009544
2434.0,0.013954
2436.0,0.005475
2438.0,-0.027217
2440.0,-0.028287
2442.0,-0.025616
2444.0,0.014238
2446.0,0.017136
2448.0,0.011355
2450.0,0.027456
2452.0,0.028362
2454.0,-0.012908
2456.0,-0.000996
2458.0,0.012077
2460.0,0.029756
2462.0,0.033054
2464.0,0.007929
2466.0,0.053635
2468.0,0.036525
2470.0,0.035104
2472.0,0.032561
2474.0,0.0429
2476.0,0.001282
2478.0,0.025969
2480.0,0.031274
2482.0,0.061493
2484.0,0.06475
2486.0,0.051324
2488.0,0.139543
2490.0,0.01359
2492.0,0.057703
2494.0,0.117595
2496.0,0.100859
2498.0,0.058417
2500.0,0.114906
2502.0,0.11494
2504.0,0.138767
2506.0,0.1465
2508.0,0.130204
2510.0,0.126619
2512.0,0.14042
2514.0,0.152234
2516.0,0.144472
2518.0,0.181096
2520.0,0.188139
2522.0,0.188926
2524.0,0.162549
2526.0,0.237591
2528.0,0.223116
2530.0,0.239409
2532.0,0.288642
2534.0,0.26599
2536.0,0.319448
2538.0,0.312033
2540.0,0.293356
2542.0,0.343142
2544.0,0.351816
2546.0,0.385139
2548.0,0.394779
2550.0,0.425235
2552.0,0.451693
2554.0,0.459239
2556.0,0.499058
2558.0,0.475019
2560.0,0.514034
2562.0,0.541516
2564.0,0.561474
2566.0,0.609296
2568.0,0.589792
2570.0,0.63062
2572.0,0.633791
2574.0,0.657418
2576.0,0.650929
2578.0,0.696602
2580.0,0.703998
2582.0,0.780983
2584.0,0.742717
2586.0,0.786136
2588.0,0.821863
2590.0,0.826773
2592.0,0.811361
2594.0,0.832538
2596.0,0.888755
2598.0,0.850649
2600.0,0.890981
2602.0,0.928345
2604.0,0.883312
2606.0,0.912912
2608.0,0.921157
2610.0,0.939844
2612.0,0.972449
2614.0,0.948852
2616.0,0.963393
2618.0,1.005076
2620.0,1.008663
2622.0,0.985174
2624.0,0.976977
2626.0,0.973079
2628.0,1.005611
2630.0,0.999846
2632.0,1.011848
2634.0,1.000414
2636.0,0.999161
2638.0,0.957751
2640.0,0.995918
2642.0,0.938627
2644.0,0.998383
2646.0,0.931248
2648.0,0.942223
2650.0,0.916783
2652.0,0.953169
2654.0,0.912961
2656.0,0.915333
2658.0,0.899779
2660.0,0.852121
2662.0,0.841496
2664.0,0.817184
2666.0,0.807726
2668.0,0.82078
2670.0,0.798084
2672.0,0.783543
2674.0,0.734259
2676.0,0.712911
2678.0,0.735483
2680.0,0.70018
2682.0,0.678139
2684.0,0.650836
2686.0,0.644393
2688.0,0.636477
2690.0,0.586511
2692.0,0.561715
2694.0,0.523732
2696.0,0.526695
2698.0,0.49142
2700.0,0.461251
2702.0,0.47747
2704.0,0.458604
2706.0,0.436483
2708.0,0.384955
2710.0,0.380959
2712.0,0.370373
2714.0,0.402439
2716.0,0.355836
2718.0,0.348463
2720.0,0.312161
2722.0,0.276141
2724.0,0.322064
2726.0,0.273334
2728.0,0.259962
2730.0,0.257089
2732.0,0.223043
2734.0,0.220171
2736.0,0.175604
2738.0,0.193731
2740.0,0.152705
2742.0,0.137416
2744.0,0.165306
2746.0,0.126988
2748.0,0.127707
2750.0,0.128238
2752.0,0.117911
2754.0,0.139192
2756.0,0.10307
2758.0,0.109273
2760.0,0.106085
2762.0,0.051487
2764.0,0.046832
2766.0,0.076863
2768.0,0.051477
2770.0,0.033394
2772.0,0.063733
2774.0,0.048243
2776.0,0.024205
2778.0,0.036505
2780.0,-0.038437
2782.0,0.006212
2784.0,0.018805
2786.0,0.004489
2788.0,-0.015867
2790.0,0.000559
2792.0,-0.017268
2794.0,-0.041103
2796.0,-0.033385
2798.0,-0.024611
2800.0,-0.029475
2802.0,-0.048596
2804.0,-0.095874
2806.0,0.011446
2808.0,-0.030634
2810.0,-0.060804
2812.0,-0.029853
2814.0,0.004489
2816.0,-0.030155
2818.0,0.025815
2820.0,0.02204
2822.0,0.061068
2824.0,0.024969
2826.0,0.050587
2828.0,0.085275
2830.0,0.077516
2832.0,0.059534
2834.0,0.070917
2836.0,0.082213
2838.0,0.048465
2840.0,0.098613
2842.0,0.103124
2844.0,0.083863
2846.0,0.088694
2848.0,0.109129
2850.0,0.134045
2852.0,0.100733
2854.0,0.110498
2856.0,0.11103
2858.0,0.123844
2860.0,0.13929
2862.0,0.110379
2864.0,0.090733
2866.0,0.131271
2868.0,0.166618
2870.0,0.123373
2872.0,0.157158
2874.0,0.147568
2876.0,0.124273
2878.0,0.151999
2880.0,0.13414
2882.0,0.139778
2884.0,0.142602
2886.0,0.125861
2888.0,0.145023
2890.0,0.178296
2892.0,0.154806
2894.0,0.173438
2896.0,0.123847
2898.0,0.195497
2900.0,0.152471
2902.0,0.145093
2904.0,0.123987
2906.0,0.113635
2908.0,0.131899
2910.0,0.155621
2912.0,0.130211
2914.0,0.169919
2916.0,0.110614
2918.0,0.083945
2920.0,0.100332
2922.0,0.132427
2924.0,0.126367
2926.0,0.075699
2928.0,0.077961
2930.0,0.113887
2932.0,0.049757
2934.0,0.094251
2936.0,0.05893
2938.0,0.067111
2940.0,0.059573
2942.0,0.082356
2944.0,0.088855
2946.0,0.04753
2948.0,0.078649
2950.0,0.063113
2952.0,0.029024
2954.0,0.02962
2956.0,0.048439
2958.0,0.032035
2960.0,0.027952
2962.0,0.051373
2964.0,0.038446
2966.0,0.003406
2968.0,0.049659
2970.0,0.037615
2972.0,0.031649
2974.0,0.032191
2976.0,-0.009782
2978.0,0.019086
2980.0,-0.001385
2982.0,0.005711
2984.0,0.046508
2986.0,0.001622
2988.0,0.040175
2990.0,0.003799
2992.0,0.007205
2994.0,0.023842
2996.0,0.017297
2998.0,-0.025584
3000.0,0.013329
3002.0,-0.009758
3004.0,-0.002736
3006.0,0.009383
3008.0,-0.008372
3010.0,-0.037432
3012.0,0.001077
3014.0,-0.00191
3016.0,-0.011954
3018.0,-0.021875
3020.0,-0.00212
3022.0,0.001008
3024.0,-0.007236
3026.0,0.020394
3028.0,-0.00354
3030.0,0.002123
3032.0,-0.028767
3034.0,-0.00596
3036.0,0.044998
3038.0,-0.038519
3040.0,0.01618
3042.0,0.00399
3044.0,-0.003022
3046.0,-0.003064
3048.0,0.00139
3050.0,-0.031478
3052.0,0.029861
3054.0,0.006897
3056.0,0.025604
3058.0,0.009215
3060.0,0.013428
3062.0,0.01405
3064.0,0.004197
3066.0,0.031387
3068.0,0.006319
3070.0,0.005368
3072.0,-0.013487
3074.0,-0.004856
3076.0,0.023865
3078.0,-0.010151
3080.0,0.016087
3082.0,0.000326
3084.0,-0.030255
3086.0,0.014784
3088.0,-0.000113
3090.0,-0.001986
3092.0,0.020904
3094.0,0.006118
3096.0,-0.021433
3098.0,0.005322
3100.0,-0.01361
3102.0,-0.017342
3104.0,0.032201
3106.0,-0.044166
3108.0,-0.00965
3110.0,-0.010855
3112.0,0.015474
3114.0,0.022892
3116.0,-0.015071
3118.0,-0.052923
3120.0,0.036788
3122.0,-0.016876
3124.0,-0.005656
3126.0,-0.007024
3128.0,-0.007448
3130.0,0.002701
3132.0,-0.019445
3134.0,0.010721
3136.0,0.015393
3138.0,-0.015182
3140.0,-0.017155
3142.0,0.021768
3144.0,0.02802
3146.0,0.012011
3148.0,0.016398
3150.0,-0.040536
3152.0,0.004923
3154.0,0.003468
3156.0,-0.001539
3158.0,0.018013
3160.0,0.020961
3162.0,0.000156
3164.0,-0.004379
3166.0,0.030018
3168.0,-0.008939
3170.0,-0.011597
3172.0,0.018656
3174.0,-0.002409
3176.0,0.034807
3178.0,0.033466
3180.0,0.020046
3182.0,0.004982
3184.0,0.003193
3186.0,-0.006949
3188.0,0.043893
3190.0,0.006233
3192.0,0.009836
3194.0,0.006041
3196.0,0.001227
3198.0,-0.024969
3200.0,0.010216
3202.0,0.020972
3204.0,-0.021143
3206.0,-0.039198
3208.0,-0.009648
3210.0,-0.002535
3212.0,0.011783
3214.0,-0.01342
3216.0,0.008329
3218.0,-0.017095
3220.0,-0.037935
3222.0,0.022615
3224.0,2.2e-05
3226.0,-0.010328
3228.0,-0.014632
3230.0,0.012631
3232.0,-0.02639
3234.0,0.004343
3236.0,0.024331
3238.0,-0.008002
3240.0,0.015481
3242.0,0.03018
3244.0,0.046797
3246.0,0.021391
3248.0,-0.017595
3250.0,-0.026337
3252.0,-0.002923
3254.0,0.0403
3256.0,-0.00197
3258.0,0.02057
3260.0,0.013138
3262.0,0.045214
3264.0,0.002603
3266.0,-0.000611
3268.0,-0.009668
3270.0,0.009798
3272.0,0.01289
3274.0,0.007614
3276.0,0.018239
3278.0,0.010436
3280.0,-0.003131
3282.0,0.005073
3284.0,0.000633
3286.0,0.013644
3288.0,0.009912
3290.0,0.045213
3292.0,0.013978
3294.0,-0.007885
3296.0,0.006465
3298.0,-0.01997
3300.0,0.009413
3302.0,0.022371
3304.0,0.006351
3306.0,0.043619
3308.0,0.022212
3310.0,0.006623
3312.0,0.039192
3314.0,0.038776
3316.0,0.024303
3318.0,0.037604
3320.0,0.014664
3322.0,0.05716
3324.0,0.006912
3326.0,0.035262
3328.0,0.021232
3330.0,0.047171
3332.0,0.017881
3334.0,0.061244
3336.0,0.06116
3338.0,0.040787
3340.0,0.078574
3342.0,0.043459
3344.0,0.072425
3346.0,0.090246
3348.0,0.088989
3350.0,0.115557
3352.0,0.084053
3354.0,0.086389
3356.0,0.155141
3358.0,0.108395
3360.0,0.178568
3362.0,0.166828
3364.0,0.182667
3366.0,0.173396
3368.0,0.169119
3370.0,0.197743
3372.0,0.212191
3374.0,0.213144
3376.0,0.214264
3378.0,0.262277
3380.0,0.251895
3382.0,0.294785
3384.0,0.302629
3386.0,0.340334
3388.0,0.345247
3390.0,0.298312
3392.0,0.368293
3394.0,0.380112
3396.0,0.44447
3398.0,0.409886
3400.0,0.427046
3402.0,0.445792
3404.0,0.4682
3406.0,0.477074
3408.0,0.545313
3410.0,0.537427
3412.0,0.560874
3414.0,0.595619
3416.0,0.563827
3418.0,0.642397
3420.0,0.624883
3422.0,0.658762
3424.0,0.660527
3426.0,0.678553
3428.0,0.701849
3430.0,0.739441
3432.0,0.759224
3434.0,0.772993
3436.0,0.809361
3438.0,0.797425
3440.0,0.795807
3442.0,0.820717
3444.0,0.848574
3446.0,0.892655
3448.0,0.90199
3450.0,0.917872
3452.0,0.926102
3454.0,0.91246
3456.0,0.928117
3458.0,0.909182
3460.0,0.961333
3462.0,0.952884
3464.0,0.979941
3466.0,0.987889
3468.0,0.975325
3470.0,1.032763
3472.0,0.989776
3474.0,0.979877
3476.0,1.025032
3478.0,0.986189
3480.0,1.034934
3482.0,1.013264
3484.0,0.968407
3486.0,0.98576
3488.0,1.005113
3490.0,0.990584
3492.0,0.989001
3494.0,0.976324
3496.0,0.963941
3498.0,0.936132
3500.0,0.925718
3502.0,0.925856
3504.0,0.92099
3506.0,0.907152
3508.0,0.862476
3510.0,0.852495
3512.0,0.892649
3514.0,0.84314
3516.0,0.806449
3518.0,0.770538
3520.0,0.779058
3522.0,0.766071
3524.0,0.73238
3526.0,0.696953
3528.0,0.727764
3530.0,0.674099
3532.0,0.666615
3534.0,0.646817
3536.0,0.60911
3538.0,0.613163
3540.0,0.56522
3542.0,0.544907
3544.0,0.574399
3546.0,0.520582
3548.0,0.504886
3550.0,0.4631
3552.0,0.474255
3554.0,0.449155
3556.0,0.423385
3558.0,0.417534
3560.0,0.393625
3562.0,0.344859
3564.0,0.348819
3566.0,0.321802
3568.0,0.297513
3570.0,0.312879
3572.0,0.242284
3574.0,0.2787
3576.0,0.252138
3578.0,0.270283
3580.0,0.246524
3582.0,0.231691
3584.0,0.214037
3586.0,0.157847
3588.0,0.171629
3590.0,0.149657
3592.0,0.162423
3594.0,0.156369
3596.0,0.133565
3598.0,0.11864
3600.0,0.125322
3602.0,0.108158
3604.0,0.097721
3606.0,0.144174
3608.0,0.083555
3610.0,0.071748
3612.0,0.078071
3614.0,0.070181
3616.0,0.080576
3618.0,0.094326
3620.0,0.024442
3622.0,0.075697
3624.0,0.039884
3626.0,0.012909
3628.0,-0.00179
3630.0,0.033931
3632.0,-0.030832
3634.0,-0.024998
3636.0,0.009173
3638.0,-0.068135
3640.0,-0.044147
3642.0,-0.008054
3644.0,-0.032584
3646.0,-0.04321
3648.0,-0.020726
3650.0,-0.069497
3652.0,-0.050607
3654.0,-0.011194
3656.0,-0.027121
3658.0,-0.046489
3660.0,0.045888
3662.0,0.007128
3664.0,0.032635
3666.0,0.035752
3668.0,0.035567
3670.0,0.030588
3672.0,0.049242
3674.0,0.017535
3676.0,0.046733
3678.0,0.089404
3680.0,0.071143
3682.0,0.072475
3684.0,0.088005
3686.0,0.100184
3688.0,0.111973
3690.0,0.097343
3692.0,0.091105
3694.0,0.0862
3696.0,0.102539
3698.0,0.085262
3700.0,0.123468
3702.0,0.112352
3704.0,0.136298
3706.0,0.125249
3708.0,0.120004
3710.0,0.120628
3712.0,0.147671
3714.0,0.122568
3716.0,0.141465
3718.0,0.173802
3720.0,0.171158
3722.0,0.148885
3724.0,0.153774
3726.0,0.160122
3728.0,0.160242
3730.0,0.143402
3732.0,0.134435
3734.0,0.118048
3736.0,0.173988
3738.0,0.171534
3740.0,0.178081
3742.0,0.144104
3744.0,0.160817
3746.0,0.16223
3748.0,0.152476
3750.0,0.165744
3752.0,0.138774
3754.0,0.117428
3756.0,0.164147
3758.0,0.100929
3760.0,0.135314
3762.0,0.11057
3764.0,0.133942
3766.0,0.094378
3768.0,0.102314
3770.0,0.087413
3772.0,0.118923
3774.0,0.08168
3776.0,0.063513
3778.0,0.066303
3780.0,0.079173
3782.0,0.076376
3784.0,0.051789
3786.0,0.102833
3788.0,0.028656
3790.0,0.056157
3792.0,0.044914
3794.0,0.04419
3796.0,0.048103
3798.0,0.020687
3800.0,0.026426
3802.0,0.031659
3804.0,0.017708
3806.0,0.045388
3808.0,0.013703
3810.0,0.056851
3812.0,0.002774
3814.0,0.059159
3816.0,0.017601
3818.0,0.064219
3820.0,0.024413
3822.0,0.020781
3824.0,0.029343
3826.0,-0.052101
3828.0,-0.009232
3830.0,-0.002163
3832.0,-0.016808
3834.0,0.024151
3836.0,0.064913
3838.0,-0.044528
3840.0,-0.011198
3842.0,0.009692
3844.0,-0.008393
3846.0,0.020213
3848.0,-0.000874
3850.0,0.017533
3852.0,0.035579
3854.0,0.005609
3856.0,0.01622
3858.0,-0.004199
3860.0,-0.018598
3862.0,0.011388
3864.0,0.001537
3866.0,-0.005834
3868.0,-0.010562
3870.0,-0.014382
3872.0,0.00825
3874.0,-0.000957
3876.0,-0.028483
3878.0,-0.004441
3880.0,0.02437
3882.0,0.019762
3884.0,-0.003698
3886.0,0.006125
3888.0,-0.007622
3890.0,0.041671
3892.0,0.012374
3894.0,-0.006148
3896.0,0.02088
3898.0,-0.008408
3900.0,-0.00806
3902.0,-0.029272
3904.0,-0.017535
3906.0,-0.01448
3908.0,-0.013438
3910.0,-0.018959
3912.0,0.000605
3914.0,-0.016574
3916.0,0.032117
3918.0,-0.00865
3920.0,-0.025286
3922.0,0.011748
3924.0,-0.000616
3926.0,-0.000375
3928.0,-0.008028
3930.0,0.028573
3932.0,-0.01438
3934.0,0.019895
3936.0,0.000977
3938.0,0.016306
3940.0,0.001754
3942.0,0.040399
3944.0,-0.009066
3946.0,0.006753
3948.0,-0.004658
3950.0,0.002427
3952.0,-0.018667
3954.0,-0.010009
3956.0,-0.020944
3958.0,-0.016748
3960.0,0.008625
3962.0,0.008959
3964.0,0.005996
3966.0,-0.000873
3968.0,-0.016817
3970.0,0.004877
3972.0,-0.018442
3974.0,-0.026552
3976.0,0.02138
3978.0,0.005257
3980.0,-0.000728
3982.0,0.035554
3984.0,-0.002733
3986.0,0.028858
3988.0,-0.018039
3990.0,-0.027396
3992.0,-0.023516
3994.0,0.015796
3996.0,0.012689
3998.0,-0.002634
4000.0,-0.030342
4002.0,-0.014746
4004.0,0.01324
4006.0,0.007369
4008.0,-0.018039
4010.0,0.002247
4012.0,0.047035
4014.0,-0.004206
4016.0,-0.028493
4018.0,-0.001786
4020.0,0.009314
4022.0,0.03063
4024.0,0.003634
4026.0,-0.023213
4028.0,-0.00418
4030.0,0.022926
4032.0,-0.012472
4034.0,0.022655
4036.0,-0.025105
4038.0,0.000407
4040.0,-0.000537
4042.0,-0.019959
4044.0,0.003445
4046.0,0.017452
4048.0,-0.00616
4050.0,-0.0096
4052.0,0.009317
4054.0,0.020099
4056.0,0.022338
4058.0,-0.004426
4060.0,-0.008779
4062.0,0.019572
4064.0,0.018137
4066.0,0.038269
4068.0,0.002215
4070.0,0.008406
4072.0,-0.002137
4074.0,-0.01028
4076.0,0.059135
4078.0,0.00835
4080.0,-0.007843
4082.0,0.00179
4084.0,0.002573
4086.0,-0.015217
4088.0,-0.030258
4090.0,-0.01609
4092.0,-0.012661
4094.0,0.006291
4096.0,0.007813
4098.0,-0.046194
4100.0,-0.02564
4102.0,-0.020718
4104.0,0.031807
4106.0,0.009886
4108.0,-0.009644
4110.0,-0.006612
4112.0,-0.003727
4114.0,-0.031844
4116.0,0.021446
4118.0,0.013832
4120.0,0.004453
4122.0,0.001287
4124.0,-0.004975
4126.0,-0.008134
4128.0,-0.027191
4130.0,0.013526
4132.0,-0.019779
4134.0,0.001085
4136.0,-0.006388
4138.0,-0.006587
4140.0,0.011113
4142.0,-0.001163
4144.0,-0.017792
4146.0,0.016356
4148.0,0.030368
4150.0,0.007687
4152.0,0.010917
4154.0,0.000511
4156.0,0.038176
4158.0,0.015169
4160.0,-0.009383
4162.0,0.029861
4164.0,0.047265
4166.0,0.016511
4168.0,-0.009169
4170.0,-0.023132
4172.0,-0.006688
4174.0,0.059822
4176.0,-0.000498
4178.0,-0.00783
4180.0,0.016837
4182.0,0.035023
4184.0,0.018307
4186.0,0.019031
4188.0,0.033199
4190.0,0.056299
4192.0,0.042995
4194.0,0.02687
4196.0,0.031173
4198.0,0.047792
4200.0,0.025685
4202.0,0.055673
4204.0,0.083729
4206.0,0.055675
4208.0,0.057173
4210.0,0.078417
4212.0,0.058569
4214.0,0.109293
4216.0,0.109195
4218.0,0.111875
4220.0,0.105417
4222.0,0.113835
4224.0,0.127125
4226.0,0.103011
4228.0,0.123162
4230.0,0.136981
4232.0,0.175138
4234.0,0.202742
4236.0,0.172598
4238.0,0.189885
4240.0,0.201095
4242.0,0.197758
4244.0,0.210582
4246.0,0.236686
4248.0,0.271933
4250.0,0.236505
4252.0,0.293901
4254.0,0.268708
4256.0,0.323223
4258.0,0.319401
4260.0,0.317554
4262.0,0.327726
4264.0,0.368132
4266.0,0.409147
4268.0,0.395855
4270.0,0.430533
4272.0,0.428845
4274.0,0.446769
4276.0,0.475688
4278.0,0.482897
4280.0,0.527688
4282.0,0.512403
4284.0,0.594961
4286.0,0.573551
4288.0,0.591039
4290.0,0.645259
4292.0,0.637639
4294.0,0.687296
4296.0,0.667642
4298.0,0.688906
4300.0,0.709104
4302.0,0.777042
4304.0,0.728497
4306.0,0.784233
4308.0,0.836056
4310.0,0.8049
4312.0,0.856881
4314.0,0.865209
4316.0,0.879465
4318.0,0.884513
4320.0,0.890219
4322.0,0.894652
4324.0,0.925975
4326.0,0.948061
4328.0,0.940564
4330.0,0.976221
4332.0,0.980071
4334.0,0.979708
4336.0,0.973911
4338.0,0.998023
4340.0,0.995067
4342.0,1.03576
4344.0,1.003049
4346.0,1.012337
4348.0,0.974646
4350.0,1.001664
4352.0,1.029599
4354.0,1.003376
4356.0,1.009326
4358.0,0.98014
4360.0,0.970041
4362.0,0.977557
4364.0,0.942099
4366.0,0.948908
4368.0,0.989228
4370.0,0.932335
4372.0,0.910546
4374.0,0.936638
4376.0,0.903915
4378.0,0.871538
4380.0,0.86661
4382.0,0.847347
4384.0,0.82154
4386.0,0.819722
4388.0,0.800886
4390.0,0.770979
4392.0,0.7556
4394.0,0.77065
4396.0,0.755854
4398.0,0.707745
4400.0,0.637906
4402.0,0.664548
4404.0,0.615816
4406.0,0.613691
4408.0,0.572424
4410.0,0.618865
4412.0,0.56205
4414.0,0.570809
4416.0,0.47989
4418.0,0.536954
4420.0,0.487449
4422.0,0.482956
4424.0,0.440624
4426.0,0.418306
4428.0,0.365136
4430.0,0.383261
4432.0,0.329879
4434.0,0.345712
4436.0,0.308453
4438.0,0.313696
4440.0,0.347083
4442.0,0.301317
4444.0,0.282635
4446.0,0.267879
4448.0,0.241518
4450.0,0.215539
4452.0,0.235835
4454.0,0.211503
4456.0,0.170747
4458.0,0.209639
4460.0,0.204734
4462.0,0.158395
4464.0,0.169381
4466.0,0.138951
4468.0,0.148452
4470.0,0.111834
4472.0,0.100413
4474.0,0.128557
4476.0,0.129128
4478.0,0.103423
4480.0,0.103259
4482.0,0.102328
4484.0,0.085493
4486.0,0.134297
4488.0,0.088396
4490.0,0.052425
4492.0,0.047013
4494.0,0.044961
4496.0,0.0442
4498.0,0.012978
4500.0,0.025782
4502.0,-0.00034
4504.0,-0.002312
4506.0,0.024986
4508.0,-0.001166
4510.0,-0.019455
4512.0,-0.005257
4514.0,-0.017542
4516.0,-0.009442
4518.0,-0.022042
4520.0,-0.063353
4522.0,-0.039407
4524.0,-0.071474
4526.0,-0.010296
4528.0,-0.03295
4530.0,-0.038729
4532.0,-0.022821
4534.0,-0.036702
4536.0,-0.004916
4538.0,0.031435
4540.0,0.000372
4542.0,0.022475
4544.0,0.024287
4546.0,0.048292
4548.0,0.06591
4550.0,0.008033
4552.0,0.054541
4554.0,0.041053
4556.0,0.050489
4558.0,0.089042
4560.0,0.109238
4562.0,0.071269
4564.0,0.106152
4566.0,0.065949
4568.0,0.101197
4570.0,0.108032
4572.0,0.086314
4574.0,0.124213
4576.0,0.128765
4578.0,0.109478
4580.0,0.108173
4582.0,0.140397
4584.0,0.143084
4586.0,0.140544
4588.0,0.158147
4590.0,0.140949
4592.0,0.144209
4594.0,0.13261
4596.0,0.151075
4598.0,0.150822
4600.0,0.183757
4602.0,0.17096
4604.0,0.14028
4606.0,0.127003
4608.0,0.128284
4610.0,0.149131
4612.0,0.132756
4614.0,0.132177
4616.0,0.134824
4618.0,0.146085
4620.0,0.121473
4622.0,0.120058
4624.0,0.15433
4626.0,0.13642
4628.0,0.139652
4630.0,0.16697
4632.0,0.116509
4634.0,0.129978
4636.0,0.16832
4638.0,0.157504
4640.0,0.145821
4642.0,0.085632
4644.0,0.100076
4646.0,0.11156
4648.0,0.082208
4650.0,0.080516
4652.0,0.125389
4654.0,0.055738
4656.0,0.070704
4658.0,0.070679
4660.0,0.132094
4662.0,0.074563
4664.0,0.059104
4666.0,0.049579
4668.0,0.053053
4670.0,0.087963
4672.0,0.053105
4674.0,0.064988
4676.0,0.034687
4678.0,0.073001
4680.0,0.084897
4682.0,0.045608
4684.0,0.02889
4686.0,0.009996
4688.0,0.045388
4690.0,0.018849
4692.0,0.062448
4694.0,0.038128
4696.0,-0.000225
4698.0,0.004137
4700.0,-0.000849
4702.0,0.033557
4704.0,0.050255
4706.0,0.022563
4708.0,0.000724
4710.0,0.038035
4712.0,0.008783
4714.0,0.017229
4716.0,-0.016343
4718.0,0.010987
4720.0,0.016123
4722.0,-0.017511
4724.0,0.022892
4726.0,0.01998
4728.0,0.019538
4730.0,-0.067715
4732.0,0.04095
4734.0,-0.004988
4736.0,0.00016
4738.0,-0.023648
4740.0,-0.00541
4742.0,-0.003436
4744.0,0.024959
4746.0,-0.021384
4748.0,0.006915
4750.0,0.010401
4752.0,-0.003636
4754.0,0.000165
4756.0,0.008139
4758.0,-0.032135
4760.0,-0.00724
4762.0,-0.011393
4764.0,0.003893
4766.0,0.042911
4768.0,-0.01759
4770.0,0.038321
4772.0,-0.011844
4774.0,0.001293
4776.0,0.010442
4778.0,-0.036945
4780.0,0.033804
4782.0,0.004161
4784.0,0.004905
4786.0,0.038584
4788.0,-0.005543
4790.0,0.007996
4792.0,-0.0282
4794.0,0.014122
4796.0,-0.002628
4798.0,-0.004624
4800.0,-0.003979
4802.0,0.018568
4804.0,-0.010409
4806.0,0.015804
4808.0,0.005699
4810.0,-0.040915
4812.0,0.007905
4814.0,0.007467
4816.0,-0.013284
4818.0,-0.012949
4820.0,-0.001222
4822.0,0.010006
4824.0,0.008689
4826.0,-0.02945
4828.0,-7.8e-05
4830.0,-0.028705
4832.0,0.002918
4834.0,0.006525
4836.0,-0.016454
4838.0,-0.007032
4840.0,-0.047314
4842.0,-0.009024
4844.0,-0.044065
4846.0,-0.004442
4848.0,0.004847
4850.0,0.001437
4852.0,0.019187
4854.0,0.004701
4856.0,0.005477
4858.0,-0.004963
4860.0,0.015139
4862.0,-0.010865
4864.0,0.034234
4866.0,-0.00402
4868.0,0.010746
4870.0,-0.001353
4872.0,0.018082
4874.0,-0.014815
4876.0,0.008579
4878.0,-0.016379
4880.0,0.032762
4882.0,-0.011961
4884.0,-0.003783
4886.0,-0.025975
4888.0,-0.013775
4890.0,-0.024341
4892.0,-0.029686
4894.0,0.018878
4896.0,-0.023113
4898.0,-0.020443
4900.0,0.005139
4902.0,0.048587
4904.0,-0.047996
4906.0,0.014343
4908.0,-0.000105
4910.0,0.0146
4912.0,-0.004001
4914.0,0.011802
4916.0,0.021441
4918.0,-0.012177
4920.0,-0.042008
4922.0,-0.02923
4924.0,-0.004521
4926.0,0.006706
4928.0,0.012197
4930.0,-0.021217
4932.0,-0.002616
4934.0,-0.008691
4936.0,0.006007
4938.0,0.003267
4940.0,-0.017691
4942.0,0.019359
4944.0,-0.022629
4946.0,0.036802
4948.0,-0.001974
4950.0,0.01058
4952.0,-0.005279
4954.0,0.019045
4956.0,-0.019144
4958.0,-0.029285
4960.0,0.014369
4962.0,-0.047506
4964.0,-0.033902
4966.0,0.016211
4968.0,0.007638
4970.0,0.015426
4972.0,-0.024115
4974.0,-0.067095
4976.0,-0.038435
4978.0,-0.023877
4980.0,0.055629
4982.0,-0.034135
4984.0,-0.004674
4986.0,-0.004566
4988.0,0.024837
4990.0,0.00912
4992.0,0.002639
4994.0,0.023559
4996.0,-0.011556
4998.0,0.01256
5000.0,0.012401
5002.0,-0.024399
5004.0,-0.010217
5006.0,-0.013777
5008.0,-0.00628
5010.0,0.001177
5012.0,-0.011565
5014.0,-0.000163
5016.0,-0.014423
5018.0,-0.009541
5020.0,0.020224
5022.0,0.005559
5024.0,0.005672
5026.0,-0.00521
5028.0,-0.02682
5030.0,-0.021136
5032.0,0.021125
5034.0,0.061445
5036.0,0.043954
5038.0,0.008631
5040.0,0.016186
5042.0,0.016918
5044.0,0.022513
5046.0,0.023794
5048.0,0.007746
5050.0,0.039634
5052.0,0.076303
5054.0,0.014107
5056.0,0.028063
5058.0,0.050191
5060.0,0.025538
5062.0,0.049788
5064.0,0.042947
5066.0,0.025785
5068.0,0.09317
5070.0,0.02823
5072.0,0.084127
5074.0,0.083118
5076.0,0.09192
5078.0,0.094621
5080.0,0.129435
5082.0,0.12377
5084.0,0.109443
5086.0,0.127221
5088.0,0.152081
5090.0,0.175106
5092.0,0.128826
5094.0,0.15675
5096.0,0.140695
5098.0,0.170005
5100.0,0.191165
5102.0,0.18465
5104.0,0.210755
5106.0,0.24804
5108.0,0.236286
5110.0,0.247095
5112.0,0.233271
5114.0,0.283848
5116.0,0.28944
5118.0,0.333155
5120.0,0.305816
5122.0,0.352116
5124.0,0.352785
5126.0,0.399051
5128.0,0.404061
5130.0,0.392617
5132.0,0.419812
5134.0,0.495028
5136.0,0.493295
5138.0,0.499516
5140.0,0.509037
5142.0,0.530459
5144.0,0.542585
5146.0,0.562939
5148.0,0.593128
5150.0,0.62231
5152.0,0.601577
5154.0,0.6219
5156.0,0.676451
5158.0,0.686852
5160.0,0.701951
5162.0,0.75606
5164.0,0.763468
5166.0,0.760494
5168.0,0.768607
5170.0,0.814076
5172.0,0.836909
5174.0,0.793612
5176.0,0.867833
5178.0,0.909399
5180.0,0.897313
5182.0,0.921506
5184.0,0.899734
5186.0,0.934674
5188.0,0.951275
5190.0,0.983403
5192.0,0.952818
5194.0,0.965395
5196.0,1.011552
5198.0,0.969418
5200.0,0.99401
5202.0,0.992615
5204.0,0.974053
5206.0,1.009427
5208.0,0.995617
5210.0,0.994719
5212.0,1.030079
5214.0,0.947552
5216.0,0.99755
5218.0,0.98607
5220.0,0.987816
5222.0,0.97095
5224.0,0.955981
5226.0,0.960332
5228.0,0.959394
5230.0,0.953064
5232.0,0.918192
5234.0,0.92531
5236.0,0.899015
5238.0,0.875468
5240.0,0.887169
5242.0,0.864999
5244.0,0.856323
5246.0,0.820732
5248.0,0.778321
5250.0,0.808531
5252.0,0.769995
5254.0,0.734964
5256.0,0.709357
5258.0,0.726358
5260.0,0.699307
5262.0,0.692403
5264.0,0.655925
5266.0,0.619323
5268.0,0.603525
5270.0,0.601951
5272.0,0.55277
5274.0,0.54923
5276.0,0.522503
5278.0,0.504076
5280.0,0.553735
5282.0,0.433952
5284.0,0.459873
5286.0,0.414049
5288.0,0.457913
5290.0,0.392705
5292.0,0.376704
5294.0,0.371322
5296.0,0.358544
5298.0,0.326661
5300.0,0.33815
5302.0,0.298028
5304.0,0.303351
5306.0,0.260528
5308.0,0.234801
5310.0,0.229575
5312.0,0.209339
5314.0,0.182464
5316.0,0.186355
5318.0,0.166563
5320.0,0.190058
5322.0,0.198339
5324.0,0.136517
5326.0,0.150144
5328.0,0.120768
5330.0,0.148783
5332.0,0.147536
5334.0,0.102253
5336.0,0.119377
5338.0,0.062768
5340.0,0.098194
5342.0,0.101491
5344.0,0.082377
5346.0,0.083844
5348.0,0.086644
5350.0,0.103693
5352.0,0.051394
5354.0,0.041099
5356.0,0.047651
5358.0,0.010718
5360.0,0.03481
5362.0,-0.008876
5364.0,0.002962
5366.0,-0.02369
5368.0,-0.038799
5370.0,-0.02145
5372.0,-0.046422
5374.0,-0.056648
5376.0,-0.042194
5378.0,-0.05727
5380.0,-0.034332
5382.0,-0.027321
5384.0,-0.025415
5386.0,0.006919
5388.0,-0.024279
5390.0,-0.023355
5392.0,-0.003902
5394.0,-0.010285
5396.0,-0.018119
5398.0,0.027654
5400.0,0.009891
5402.0,0.017769
5404.0,0.035278
5406.0,0.05095
5408.0,0.047387
5410.0,0.019273
5412.0,0.069636
5414.0,0.079728
5416.0,0.087127
5418.0,0.119199
5420.0,0.071037
5422.0,0.131268
5424.0,0.106561
5426.0,0.089482
5428.0,0.142855
5430.0,0.106351
5432.0,0.135672
5434.0,0.096162
5436.0,0.143834
5438.0,0.143948
5440.0,0.123684
5442.0,0.161516
5444.0,0.108389
5446.0,0.181586
5448.0,0.111725
5450.0,0.148513
5452.0,0.144395
5454.0,0.081982
5456.0,0.152901
5458.0,0.14042
5460.0,0.127681
5462.0,0.135437
5464.0,0.117583
5466.0,0.169556
5468.0,0.127323
5470.0,0.141344
5472.0,0.175138
5474.0,0.182801
5476.0,0.114622
5478.0,0.150562
5480.0,0.168433
5482.0,0.161081
5484.0,0.112119
5486.0,0.124542
5488.0,0.136112
5490.0,0.146952
5492.0,0.140757
5494.0,0.094565
5496.0,0.131893
5498.0,0.136455
5500.0,0.141083
5502.0,0.117069
5504.0,0.085396
5506.0,0.10577
5508.0,0.100875
5510.0,0.065632
5512.0,0.060896
5514.0,0.094965
5516.0,0.104848
5518.0,0.075747
5520.0,0.074847
5522.0,0.053857
5524.0,0.056359
5526.0,0.070775
5528.0,0.07192
5530.0,0.050944
5532.0,0.004616
5534.0,0.047733
5536.0,0.014938
5538.0,0.001668
5540.0,0.024001
5542.0,0.065064
5544.0,0.00146
5546.0,0.030352
5548.0,0.03189
5550.0,0.051822
5552.0,0.009055
5554.0,0.020633
5556.0,-0.002658
5558.0,0.002397
5560.0,0.026537
5562.0,0.035322
5564.0,-0.026988
5566.0,-0.03024
5568.0,-0.002096
5570.0,0.030293
5572.0,-0.009093
5574.0,0.028298
5576.0,0.002042
5578.0,-0.006696
5580.0,0.017948
5582.0,0.005672
5584.0,0.010073
5586.0,-0.039155
5588.0,0.005968
5590.0,0.004453
5592.0,0.068211
5594.0,-0.0009
5596.0,0.004583
5598.0,0.024323
5600.0,0.022566
5602.0,0.012643
5604.0,0.024428
5606.0,-0.039407
5608.0,-0.003864
5610.0,-0.011644
5612.0,0.001974
5614.0,-0.034163
5616.0,0.013983
5618.0,-0.007522
5620.0,0.011747
5622.0,0.000431
5624.0,0.007992
5626.0,0.022655
5628.0,-0.015152
5630.0,-0.031016
5632.0,-0.001439
5634.0,-0.015218
5636.0,-0.003037
5638.0,-0.012867
5640.0,-0.045297
5642.0,-0.020901
5644.0,-0.016833
5646.0,0.005046
5648.0,0.013406
5650.0,0.026975
5652.0,0.00427
5654.0,0.038083
5656.0,0.032893
5658.0,-0.007734
5660.0,-0.007469
5662.0,-0.022232
5664.0,-0.000848
5666.0,-0.006752
5668.0,0.00997
5670.0,0.036894
5672.0,0.045766
5674.0,0.013745
5676.0,-0.017543
5678.0,0.007173
5680.0,0.010102
5682.0,-0.015444
5684.0,-0.003362
5686.0,0.017057
5688.0,-0.010755
5690.0,-0.020942
5692.0,-0.004346
5694.0,0.005125
5696.0,0.026013
5698.0,-0.015461
5700.0,0.015496
5702.0,0.002251
5704.0,0.009404
5706.0,0.006148
5708.0,-0.016166
5710.0,-0.050356
5712.0,-0.019553
5714.0,0.006783
5716.0,0.002223
5718.0,0.006173
5720.0,-0.003807
5722.0,0.001314
5724.0,-0.007976
5726.0,0.025857
5728.0,-0.029103
5730.0,-0.014637
5732.0,-0.019113
5734.0,-0.003567
5736.0,0.013687
5738.0,0.035352
5740.0,0.020787
5742.0,0.019407
5744.0,0.02861
5746.0,0.020926
5748.0,0.020279
5750.0,-0.017609
5752.0,-0.012082
5754.0,0.013029
5756.0,0.002609
5758.0,-0.006304
5760.0,0.022645
5762.0,-0.009
5764.0,0.007521
5766.0,-0.000513
5768.0,-0.019193
5770.0,0.035409
5772.0,-0.033064
5774.0,-0.024894
5776.0,-0.008557
5778.0,0.027396
5780.0,0.026356
5782.0,-0.013897
5784.0,0.012557
5786.0,-0.004744
5788.0,-0.020218
5790.0,0.006439
5792.0,0.000827
5794.0,-0.011604
5796.0,0.01552
5798.0,0.018835
5800.0,-0.019518
5802.0,0.033283
5804.0,0.011319
5806.0,-0.002798
5808.0,0.031952
5810.0,0.016465
5812.0,0.018747
5814.0,0.016796
5816.0,-0.004662
5818.0,0.011705
5820.0,-0.001611
5822.0,-0.014377
5824.0,-0.01813
5826.0,0.010816
5828.0,0.020701
5830.0,-0.028555
5832.0,0.034454
5834.0,0.015173
5836.0,0.019791
5838.0,-0.004967
5840.0,0.01416
5842.0,0.01568
5844.0,-0.025107
5846.0,0.021243
5848.0,0.046143
5850.0,-0.013084
5852.0,-0.033967
5854.0,-0.012912
5856.0,0.019601
5858.0,0.011557
5860.0,-0.015631
5862.0,-0.008844
5864.0,-0.031579
5866.0,0.006516
5868.0,-0.038364
5870.0,0.000505
5872.0,-0.021927
5874.0,0.002414
5876.0,0.01954
5878.0,0.003771
5880.0,0.012202
5882.0,0.014177
5884.0,0.003509
5886.0,-0.004988
5888.0,-0.023091
5890.0,0.018874
5892.0,0.042123
5894.0,0.057577
5896.0,-0.02004
5898.0,-0.000373
5900.0,0.032125
5902.0,0.060233
5904.0,0.00325
5906.0,0.029865
5908.0,0.034303
5910.0,0.02076
5912.0,0.031766
5914.0,0.029794
5916.0,0.011259
5918.0,0.08124
5920.0,0.054196
5922.0,0.044074
5924.0,0.08136
5926.0,0.057574
5928.0,0.090892
5930.0,0.059203
5932.0,0.101457
5934.0,0.09859
5936.0,0.077849
5938.0,0.113881
5940.0,0.12621
5942.0,0.114555
5944.0,0.098349
5946.0,0.105852
5948.0,0.13576
5950.0,0.153414
5952.0,0.106939
5954.0,0.182582
5956.0,0.189089
5958.0,0.223557
5960.0,0.197671
5962.0,0.208455
5964.0,0.235452
5966.0,0.213855
5968.0,0.256312
5970.0,0.233749
5972.0,0.267589
5974.0,0.301747
5976.0,0.31459
5978.0,0.308509
5980.0,0.35603
5982.0,0.364436
5984.0,0.394971
5986.0,0.385858
5988.0,0.41181
5990.0,0.445965
5992.0,0.432907
5994.0,0.482171
5996.0,0.477405
5998.0,0.548152
6000.0,0.517631
6002.0,0.565817
6004.0,0.533741
6006.0,0.589098
6008.0,0.619657
6010.0,0.630302
6012.0,0.644522
6014.0,0.653621
6016.0,0.695058
6018.0,0.709313
6020.0,0.732712
6022.0,0.739836
6024.0,0.74653
6026.0,0.809614
6028.0,0.836077
6030.0,0.847768
6032.0,0.849482
6034.0,0.864241
6036.0,0.871095
6038.0,0.890814
6040.0,0.904316
6042.0,0.897643
6044.0,0.903925
6046.0,0.946468
6048.0,0.927858
6050.0,0.990135
6052.0,0.96227
6054.0,0.990925
6056.0,0.986331
6058.0,0.983417
6060.0,0.996841
6062.0,0.997336
6064.0,1.012336
6066.0,1.010004
6068.0,1.027532
6070.0,0.998936
6072.0,1.007502
6074.0,0.977776
6076.0,1.012898
6078.0,0.978219
6080.0,0.97873
6082.0,0.954162
6084.0,0.936216
6086.0,0.901634
6088.0,0.990451
6090.0,0.954704
6092.0,0.899151
6094.0,0.896217
6096.0,0.856733
6098.0,0.887989
6100.0,0.865749
6102.0,0.856023
6104.0,0.81229
6106.0,0.819575
6108.0,0.788351
6110.0,0.743395
6112.0,0.777168
6114.0,0.722058
6116.0,0.727157
6118.0,0.70852
6120.0,0.692654
6122.0,0.671273
6124.0,0.632821
6126.0,0.578406
6128.0,0.601502
6130.0,0.624518
6132.0,0.5461
6134.0,0.547302
6136.0,0.514417
6138.0,0.485633
6140.0,0.475591
6142.0,0.483472
6144.0,0.45295
6146.0,0.418113
6148.0,0.404996
6150.0,0.335096
6152.0,0.330524
6154.0,0.298189
6156.0,0.325077
6158.0,0.33984
6160.0,0.320668
6162.0,0.269889
6164.0,0.277468
6166.0,0.259165
6168.0,0.269087
6170.0,0.194395
6172.0,0.184427
6174.0,0.202099
6176.0,0.176801
6178.0,0.146617
6180.0,0.162058
6182.0,0.196901
6184.0,0.152613
6186.0,0.121373
6188.0,0.149328
6190.0,0.096458
6192.0,0.112467
6194.0,0.099566
6196.0,0.105318
6198.0,0.091606
6200.0,0.094833
6202.0,0.061972
6204.0,0.071261
6206.0,0.080525
6208.0,0.035361
6210.0,0.069309
6212.0,0.046412
6214.0,0.004818
6216.0,0.039944
6218.0,0.020932
6220.0,-0.012916
6222.0,0.008556
6224.0,-0.03695
6226.0,-0.036287
6228.0,-0.039749
6230.0,-0.01947
6232.0,0.002043
6234.0,-0.039657
6236.0,-0.030541
6238.0,-0.033103
6240.0,-0.029295
6242.0,-0.015769
6244.0,-0.034084
6246.0,-0.012414
6248.0,-0.004158
6250.0,-0.022085
6252.0,0.008518
6254.0,0.039053
6256.0,-0.025834
6258.0,0.015658
6260.0,0.057698
6262.0,0.058325
6264.0,0.05241
6266.0,0.06506
6268.0,0.048869
6270.0,0.078783
6272.0,0.080994
6274.0,0.088487
6276.0,0.073775
6278.0,0.092342
6280.0,0.059507
6282.0,0.112899
6284.0,0.132962
6286.0,0.084418
6288.0,0.109205
6290.0,0.077812
6292.0,0.134061
6294.0,0.110922
6296.0,0.123596
6298.0,0.112561
6300.0,0.109769
6302.0,0.144399
6304.0,0.140801
6306.0,0.157162
6308.0,0.15501
6310.0,0.124998
6312.0,0.179553
6314.0,0.104733
6316.0,0.159897
6318.0,0.16207
6320.0,0.178061
6322.0,0.12205
6324.0,0.156334
6326.0,0.125463
6328.0,0.192033
6330.0,0.101397
6332.0,0.150495
6334.0,0.15553
6336.0,0.128243
6338.0,0.123003
6340.0,0.196541
6342.0,0.125867
6344.0,0.126347
6346.0,0.137874
6348.0,0.127473
6350.0,0.090818
6352.0,0.097471
6354.0,0.100962
6356.0,0.104215
6358.0,0.116752
6360.0,0.099364
6362.0,0.097133
6364.0,0.109036
6366.0,0.087749
6368.0,0.095257
6370.0,0.097574
6372.0,0.079231
6374.0,0.074198
6376.0,0.096559
6378.0,0.086978
6380.0,0.128658
6382.0,0.075354
6384.0,0.064309
6386.0,0.073525
6388.0,0.061609
6390.0,0.067635
6392.0,0.040334
6394.0,0.028403
6396.0,0.001688
6398.0,0.05679
6400.0,0.006773
6402.0,0.062074
6404.0,0.01462
6406.0,0.006104
6408.0,0.007435
6410.0,0.012038
6412.0,0.033007
6414.0,0.021132
6416.0,0.006579
6418.0,0.060759
6420.0,-0.025763
6422.0,0.01802
6424.0,0.021819
6426.0,0.023911
6428.0,0.049101
6430.0,0.013665
6432.0,-0.025932
6434.0,0.035139
6436.0,-0.010246
6438.0,-0.012405
6440.0,0.012271
6442.0,-0.012563
6444.0,-0.003601
6446.0,0.011892
6448.0,-0.020912
6450.0,0.014565
6452.0,-0.02422
6454.0,-0.013024
6456.0,-0.03321
6458.0,0.013943
6460.0,0.021702
6462.0,0.003593
6464.0,0.001498
6466.0,-0.018617
6468.0,0.038422
6470.0,-0.009501
6472.0,-0.006557
6474.0,0.008615
6476.0,-0.014548
6478.0,-0.025538
6480.0,0.041552
6482.0,-0.000986
6484.0,-0.015273
6486.0,0.006955
6488.0,-0.021859
6490.0,-0.030857
6492.0,-0.049222
6494.0,0.004574
6496.0,0.035611
6498.0,-0.03174
6500.0,0.006725
6502.0,-0.030044
6504.0,0.026988
6506.0,-8.5e-05
6508.0,0.01676
6510.0,-0.010181
6512.0,-0.016976
6514.0,-0.008223
6516.0,0.013496
6518.0,0.000807
6520.0,-0.021168
6522.0,0.035121
6524.0,0.007312
6526.0,0.003991
6528.0,-0.006052
6530.0,-0.001592
6532.0,0.009067
6534.0,-0.01639
6536.0,0.064563
6538.0,-0.005613
6540.0,-0.023078
6542.0,0.016165
6544.0,-0.009932
6546.0,-0.014064
6548.0,-0.032051
6550.0,-0.013233
6552.0,-0.00097
6554.0,-0.031465
6556.0,-0.000137
6558.0,0.02916
6560.0,0.008145
6562.0,-0.003478
6564.0,-0.021183
6566.0,0.022344
6568.0,-0.002388
6570.0,0.035091
6572.0,-0.035201
6574.0,-0.006902
6576.0,0.00355
6578.0,0.001171
6580.0,0.008218
6582.0,0.01269
6584.0,-0.045615
6586.0,0.031779
6588.0,0.012979
6590.0,0.032205
6592.0,0.008514
6594.0,0.002991
6596.0,-0.054281
6598.0,0.006979
6600.0,-0.026229
6602.0,0.026876
6604.0,-0.017304
6606.0,0.008554
6608.0,0.01264
6610.0,-0.001333
6612.0,-0.014827
6614.0,0.057549
6616.0,-0.027853
6618.0,-0.012113
6620.0,-0.021229
6622.0,0.024212
6624.0,0.015399
6626.0,-0.00524
6628.0,-0.01504
6630.0,-0.00665
6632.0,0.015872
6634.0,0.03059
6636.0,-0.008988
6638.0,-0.001344
6640.0,0.045616
6642.0,0.033648
6644.0,0.006544
6646.0,-0.005551
6648.0,0.009468
6650.0,-0.0083
6652.0,0.00695
6654.0,0.01012
6656.0,0.012657
6658.0,0.006148
6660.0,0.02216
6662.0,0.01709
6664.0,0.000629
6666.0,-0.015615
6668.0,-0.0067
6670.0,0.036927
6672.0,0.011317
6674.0,0.031273
6676.0,-0.016214
6678.0,0.02326
6680.0,0.051679
6682.0,-0.016887
6684.0,0.029917
6686.0,-0.008488
6688.0,0.001444
6690.0,-0.009445
6692.0,-0.002079
6694.0,0.002571
6696.0,-0.02398
6698.0,0.013019
6700.0,-0.006347
6702.0,-0.011799
6704.0,0.039191
6706.0,0.013827
6708.0,-0.014556
6710.0,0.002179
6712.0,-0.00875
6714.0,-0.03388
6716.0,0.017288
6718.0,-0.028905
6720.0,-0.003182
6722.0,-0.041855
6724.0,0.010697
6726.0,-0.006348
6728.0,0.007538
6730.0,0.000965
6732.0,0.005745
6734.0,0.000349
6736.0,-0.013852
6738.0,-0.038525
6740.0,0.039143
6742.0,-0.008365
6744.0,0.032141
6746.0,0.019093
6748.0,-0.003026
6750.0,-0.010042
6752.0,0.012862
6754.0,0.01439
6756.0,0.006274
6758.0,0.006419
6760.0,0.013995
6762.0,-0.004718
6764.0,-0.02143
6766.0,0.017335
6768.0,-0.011494
6770.0,0.015806
6772.0,0.001516
6774.0,-0.014631
6776.0,-0.016246
6778.0,-0.010038
6780.0,0.003781
6782.0,0.008416
6784.0,0.027475
6786.0,0.005861
6788.0,0.005916
6790.0,-0.003889
6792.0,0.025765
6794.0,-0.001184
6796.0,0.012888
6798.0,0.034552
6800.0,0.0445
6802.0,0.047102
6804.0,0.046859
6806.0,0.041894
6808.0,0.037353
6810.0,0.066777
6812.0,0.042194
6814.0,0.018014
6816.0,0.060753
6818.0,0.04977
6820.0,0.075848
6822.0,0.064078
6824.0,0.058432
6826.0,0.089964
6828.0,0.084768
6830.0,0.075059
6832.0,0.067854
6834.0,0.085987
6836.0,0.132949
6838.0,0.153943
6840.0,0.145471
6842.0,0.117094
6844.0,0.137763
6846.0,0.155886
6848.0,0.177324
6850.0,0.161334
6852.0,0.207559
6854.0,0.220153
6856.0,0.200828
6858.0,0.214515
6860.0,0.253803
6862.0,0.274425
6864.0,0.281431
6866.0,0.261549
6868.0,0.265936
6870.0,0.31899
6872.0,0.351313
6874.0,0.362923
6876.0,0.344397
6878.0,0.391531
6880.0,0.411654
6882.0,0.405169
6884.0,0.410264
6886.0,0.498491
6888.0,0.484688
6890.0,0.512002
6892.0,0.560033
6894.0,0.546624
6896.0,0.540541
6898.0,0.568459
6900.0,0.622743
6902.0,0.618668
6904.0,0.625866
6906.0,0.693688
6908.0,0.681841
6910.0,0.705948
6912.0,0.736494
6914.0,0.703055
6916.0,0.747626
6918.0,0.778761
6920.0,0.788121
6922.0,0.825193
6924.0,0.807613
6926.0,0.823663
6928.0,0.859854
6930.0,0.874671
6932.0,0.862013
6934.0,0.90886
6936.0,0.943468
6938.0,0.923195
6940.0,0.922019
6942.0,0.989999
6944.0,1.002332
6946.0,0.965991
6948.0,0.994974
6950.0,0.971676
6952.0,0.98913
6954.0,0.969308
6956.0,0.995515
6958.0,1.030926
6960.0,1.005689
6962.0,1.017758
6964.0,0.969073
6966.0,1.008148
6968.0,0.993637
6970.0,1.007142
6972.0,0.966147
6974.0,0.979973
6976.0,0.932947
6978.0,0.947887
6980.0,0.977456
6982.0,0.944469
6984.0,0.908654
6986.0,0.940922
6988.0,0.915122
6990.0,0.887935
6992.0,0.882403
6994.0,0.854739
6996.0,0.856985
6998.0,0.864277
7000.0,0.771611
7002.0,0.79855
7004.0,0.721906
7006.0,0.753918
7008.0,0.718337
7010.0,0.72837
7012.0,0.701122
7014.0,0.696264
7016.0,0.660781
7018.0,0.657713
7020.0,0.586466
7022.0,0.567229
7024.0,0.536968
7026.0,0.544437
7028.0,0.519249
7030.0,0.543181
7032.0,0.518738
7034.0,0.485366
7036.0,0.458166
7038.0,0.454776
7040.0,0.398174
7042.0,0.414702
7044.0,0.370942
7046.0,0.398559
7048.0,0.35031
7050.0,0.332795
7052.0,0.303591
7054.0,0.313253
7056.0,0.305728
7058.0,0.297849
7060.0,0.249082
7062.0,0.249622
7064.0,0.220468
7066.0,0.223855
7068.0,0.207149
7070.0,0.181113
7072.0,0.169911
7074.0,0.197006
7076.0,0.17619
7078.0,0.144583
7080.0,0.13665
7082.0,0.14524
7084.0,0.114241
7086.0,0.128313
7088.0,0.113902
7090.0,0.089031
7092.0,0.045926
7094.0,0.112709
7096.0,0.100833
7098.0,0.035591
7100.0,0.072099
7102.0,0.045044
7104.0,0.065171
7106.0,0.091898
7108.0,0.09988
7110.0,0.053893
7112.0,0.051809
7114.0,0.019088
7116.0,0.036592
7118.0,0.028533
7120.0,0.027733
7122.0,-0.00187
7124.0,-0.01983
7126.0,0.00336
7128.0,-0.005085
7130.0,-0.032056
7132.0,-0.04192
7134.0,-0.084847
7136.0,-0.075904
7138.0,-0.04973
7140.0,-0.042906
7142.0,-0.075596
7144.0,-0.052703
7146.0,-0.053701
7148.0,-0.047313
7150.0,-0.007232
7152.0,-0.000607
7154.0,-0.052718
7156.0,0.015016
7158.0,0.010845
7160.0,0.004095
7162.0,0.03539
7164.0,0.031788
7166.0,0.060666
7168.0,0.048073
7170.0,0.036988
7172.0,0.038335
7174.0,0.085392
7176.0,0.025801
7178.0,0.080855
7180.0,0.129452
7182.0,0.096787
7184.0,0.096294
7186.0,0.077821
7188.0,0.058584
7190.0,0.092719
7192.0,0.129362
7194.0,0.041104
7196.0,0.087091
7198.0,0.104222
7200.0,0.112955
7202.0,0.091814
7204.0,0.142479
7206.0,0.103446
7208.0,0.13418
7210.0,0.102664
7212.0,0.141931
7214.0,0.129406
7216.0,0.104642
7218.0,0.136809
7220.0,0.162717
7222.0,0.167048
7224.0,0.167918
7226.0,0.130111
7228.0,0.174222
7230.0,0.152226
7232.0,0.158693
7234.0,0.16863
7236.0,0.117086
7238.0,0.163087
7240.0,0.120254
7242.0,0.160232
7244.0,0.138581
7246.0,0.154876
7248.0,0.130274
7250.0,0.123519
7252.0,0.147482
7254.0,0.125499
7256.0,0.160644
7258.0,0.12037
7260.0,0.154122
7262.0,0.091018
7264.0,0.132777
7266.0,0.10651
7268.0,0.12376
7270.0,0.090049
7272.0,0.105566
7274.0,0.105179
7276.0,0.074399
7278.0,0.092491
7280.0,0.075773
7282.0,0.055483
7284.0,0.091874
7286.0,0.066912
7288.0,0.033854
7290.0,0.073593
7292.0,0.053627
7294.0,0.057342
7296.0,0.054716
7298.0,0.05768
7300.0,0.030103
7302.0,0.028753
7304.0,0.060971
7306.0,0.0254
7308.0,0.030416
7310.0,-0.006846
7312.0,0.039222
7314.0,0.027495
7316.0,0.031577
7318.0,0.047931
7320.0,0.032673
7322.0,0.025112
7324.0,0.049894
7326.0,0.036526
7328.0,0.030213
7330.0,0.017866
7332.0,0.018157
7334.0,0.036557
7336.0,-0.007545
7338.0,-0.006709
7340.0,-0.001704
7342.0,-0.01183
7344.0,-0.00588
7346.0,0.014641
7348.0,0.028732
7350.0,0.008426
7352.0,0.015247
7354.0,0.018018
7356.0,0.045063
7358.0,0.00286
7360.0,0.004286
7362.0,0.004446
7364.0,0.003037
7366.0,-0.035609
7368.0,0.014632
7370.0,0.034047
7372.0,-0.0231
7374.0,0.007256
7376.0,0.041953
7378.0,0.022706
7380.0,0.023676
7382.0,-0.019156
7384.0,0.005821
7386.0,0.000605
7388.0,-0.007134
7390.0,-0.019512
7392.0,-0.017635
7394.0,-0.02634
7396.0,-0.017723
7398.0,-0.004935
7400.0,-0.006584
7402.0,-0.009461
7404.0,0.001065
7406.0,0.017591
7408.0,-0.030572
7410.0,0.006837
7412.0,-0.019408
7414.0,0.030346
7416.0,-0.00098
7418.0,0.004817
7420.0,0.012784
7422.0,0.02778
7424.0,-0.024886
7426.0,0.002268
7428.0,-0.016244
7430.0,0.036457
7432.0,-0.020829
7434.0,0.014414
7436.0,-0.00811
7438.0,0.029817
7440.0,-0.006229
7442.0,-0.013448
7444.0,0.021182
7446.0,-0.013904
7448.0,-0.013463
7450.0,0.043798
7452.0,0.04306
7454.0,-0.010271
7456.0,-0.003337
7458.0,0.04803
7460.0,0.00957
7462.0,-0.003979
7464.0,-0.003031
7466.0,0.001826
7468.0,-0.000872
7470.0,-0.010384
7472.0,-0.01181
7474.0,0.007094
7476.0,0.000166
7478.0,-0.003676
7480.0,0.017482
7482.0,0.024623
7484.0,0.002493
7486.0,-0.032562
7488.0,0.013939
7490.0,0.040152
7492.0,-0.029814
7494.0,0.012963
7496.0,-0.012146
7498.0,0.03355
7500.0,-0.037438
7502.0,-0.014094
7504.0,-0.002059
7506.0,-0.005764
7508.0,0.010792
7510.0,0.030512
7512.0,-0.015801
7514.0,-0.018483
7516.0,0.042437
7518.0,0.012845
7520.0,-0.028775
7522.0,-0.055572
7524.0,0.008158
7526.0,-0.00487
7528.0,0.026531
7530.0,-4.3e-05
7532.0,0.027858
7534.0,0.035189
7536.0,-0.021098
7538.0,-0.012813
7540.0,-0.00219
7542.0,0.00093
7544.0,-0.003776
7546.0,0.025935
7548.0,0.011887
7550.0,0.022025
7552.0,-0.019184
7554.0,-0.047009
7556.0,-0.010134
7558.0,-0.013903
7560.0,0.000946
7562.0,-0.006048
7564.0,-0.013598
7566.0,0.011415
7568.0,-0.00181
7570.0,-0.008337
7572.0,0.006317
7574.0,-0.014962
7576.0,0.048041
7578.0,0.024318
7580.0,-0.024688
7582.0,-0.034946
7584.0,0.003558
7586.0,-0.005426
7588.0,-0.010705
7590.0,-0.019909
7592.0,-0.019442
7594.0,0.043072
7596.0,0.014948
7598.0,0.003997
7600.0,-0.014842
7602.0,-0.017117
7604.0,-0.015386
7606.0,-0.000607
7608.0,-0.021725
7610.0,-0.000393
7612.0,0.013477
7614.0,-0.013509
7616.0,-0.028561
7618.0,0.034701
7620.0,-0.007784
7622.0,0.007979
7624.0,0.036177
7626.0,0.020462
7628.0,0.010505
7630.0,0.007217
7632.0,-0.011081
7634.0,0.00891
7636.0,0.024477
7638.0,0.038642
7640.0,0.001914
7642.0,0.032308
7644.0,0.052442
7646.0,0.037065
7648.0,0.050082
7650.0,0.014913
7652.0,0.020733
7654.0,0.066316
7656.0,0.068652
7658.0,0.048873
7660.0,0.032335
7662.0,0.068747
7664.0,0.042014
7666.0,0.063733
7668.0,0.110354
7670.0,0.091694
7672.0,0.090103
7674.0,0.079793
7676.0,0.050636
7678.0,0.114206
7680.0,0.104656
7682.0,0.12878
7684.0,0.091483
7686.0,0.129009
7688.0,0.15379
7690.0,0.172906
7692.0,0.148635
7694.0,0.136545
7696.0,0.17905
7698.0,0.194065
7700.0,0.219955
7702.0,0.220933
7704.0,0.24857
7706.0,0.24224
7708.0,0.236026
7710.0,0.283347
7712.0,0.283071
7714.0,0.304011
7716.0,0.33471
7718.0,0.346416
7720.0,0.348973
7722.0,0.381906
7724.0,0.411832
7726.0,0.406911
7728.0,0.394642
7730.0,0.449292
7732.0,0.462177
7734.0,0.486463
7736.0,0.443566
7738.0,0.48063
7740.0,0.514263
7742.0,0.549596
7744.0,0.56285
7746.0,0.581856
7748.0,0.603337
7750.0,0.628203
7752.0,0.641908
7754.0,0.65837
7756.0,0.695953
7758.0,0.724589
7760.0,0.732307
7762.0,0.738145
7764.0,0.769121
7766.0,0.828412
7768.0,0.81234
7770.0,0.814393
7772.0,0.850164
7774.0,0.840495
7776.0,0.862916
7778.0,0.914909
7780.0,0.934057
7782.0,0.915616
7784.0,0.918209
7786.0,0.969023
7788.0,0.955368
7790.0,0.98292
7792.0,0.943086
7794.0,0.963348
7796.0,0.966225
7798.0,0.950398
7800.0,0.936399
7802.0,1.01011
7804.0,0.994007
7806.0,0.993675
7808.0,0.998894
7810.0,0.995036
7812.0,1.000954
7814.0,0.973542
7816.0,1.020556
7818.0,0.983225
7820.0,0.961076
7822.0,0.939515
7824.0,0.962769
7826.0,0.968631
7828.0,0.923125
7830.0,0.920288
7832.0,0.887411
7834.0,0.869622
7836.0,0.930986
7838.0,0.863691
7840.0,0.856079
7842.0,0.868223
7844.0,0.827071
7846.0,0.826682
7848.0,0.750446
7850.0,0.800827
7852.0,0.750896
7854.0,0.757932
7856.0,0.702924
7858.0,0.687737
7860.0,0.683339
7862.0,0.655474
7864.0,0.632269
7866.0,0.630587
7868.0,0.593901
7870.0,0.572829
7872.0,0.558503
7874.0,0.520925
7876.0,0.506259
7878.0,0.518032
7880.0,0.461717
7882.0,0.44769
7884.0,0.419985
7886.0,0.395643
7888.0,0.376548
7890.0,0.401108
7892.0,0.386033
7894.0,0.319264
7896.0,0.339828
7898.0,0.324844
7900.0,0.316264
7902.0,0.283801
7904.0,0.288904
7906.0,0.277158
7908.0,0.197191
7910.0,0.271268
7912.0,0.224479
7914.0,0.219214
7916.0,0.222938
7918.0,0.193264
7920.0,0.150477
7922.0,0.177275
7924.0,0.171837
7926.0,0.136341
7928.0,0.128466
7930.0,0.059998
7932.0,0.118119
7934.0,0.1118
7936.0,0.074938
7938.0,0.074096
7940.0,0.079388
7942.0,0.051653
7944.0,0.079199
7946.0,0.031972
7948.0,0.056658
7950.0,0.019608
7952.0,0.041588
7954.0,0.004329
7956.0,0.018871
7958.0,0.008589
7960.0,-0.034348
7962.0,-0.005636
7964.0,-0.014367
7966.0,-0.025643
7968.0,-0.037922
7970.0,-0.012588
7972.0,-0.036579
7974.0,-0.023917
7976.0,-0.033825
7978.0,-0.035376
7980.0,-0.034921
7982.0,-0.008324
7984.0,-0.013004
7986.0,-0.001067
7988.0,0.011831
7990.0,0.031508
7992.0,-0.009277
7994.0,0.020531
7996.0,0.039225
7998.0,0.0633
8000.0,0.048888
8002.0,0.047184
8004.0,0.072184
8006.0,0.072791
8008.0,0.115203
8010.0,0.088927
8012.0,0.125646
8014.0,0.109299
8016.0,0.056791
8018.0,0.106441
8020.0,0.119168
8022.0,0.126077
8024.0,0.149421
8026.0,0.111399
8028.0,0.121979
8030.0,0.114875
8032.0,0.141003
8034.0,0.116357
8036.0,0.120347
8038.0,0.121296
8040.0,0.1375
8042.0,0.119793
8044.0,0.177386
8046.0,0.132897
8048.0,0.124616
8050.0,0.157919
8052.0,0.173385
8054.0,0.118353
8056.0,0.150022
8058.0,0.143697
8060.0,0.116807
8062.0,0.119527
8064.0,0.163457
8066.0,0.13665
8068.0,0.140545
8070.0,0.126358
8072.0,0.138608
8074.0,0.120005
8076.0,0.155997
8078.0,0.138358
8080.0,0.142402
8082.0,0.127953
8084.0,0.091313
8086.0,0.167873
8088.0,0.097422
8090.0,0.109156
8092.0,0.085268
8094.0,0.10037
8096.0,0.080061
8098.0,0.102561
8100.0,0.120568
8102.0,0.074384
8104.0,0.078651
8106.0,0.083292
8108.0,0.069749
8110.0,0.084085
8112.0,0.095366
8114.0,0.026879
8116.0,0.083331
8118.0,0.042793
8120.0,0.047037
8122.0,0.026196
8124.0,0.076903
8126.0,0.040734
8128.0,0.050953
8130.0,0.038139
8132.0,0.039872
8134.0,0.043673
8136.0,0.056039
8138.0,0.064714
8140.0,0.017942
8142.0,0.001802
8144.0,0.042326
8146.0,0.032102
8148.0,0.02032
8150.0,0.050879
8152.0,-0.0097
8154.0,-0.027305
8156.0,0.01752
8158.0,0.01353
8160.0,-0.008023
8162.0,-0.01756
8164.0,-0.007378
8166.0,0.011176
8168.0,0.001024
8170.0,0.008193
8172.0,-0.001058
8174.0,0.022932
8176.0,-0.001603
8178.0,-0.004297
8180.0,-0.02356
8182.0,0.021384
8184.0,-0.019625
8186.0,-0.030656
8188.0,0.019895
8190.0,-0.014977
8192.0,0.013921
8194.0,0.003916
8196.0,-0.014494
8198.0,0.015349
8200.0,-0.008755
8202.0,0.041677
8204.0,-0.025645
8206.0,-0.010727
8208.0,-0.031529
8210.0,0.031082
8212.0,-0.012555
8214.0,0.001537
8216.0,0.013599
8218.0,-0.04381
8220.0,-0.003056
8222.0,0.007077
8224.0,0.006875
8226.0,-0.009998
8228.0,-0.004145
8230.0,-0.041332
8232.0,-0.019869
8234.0,-0.016753
8236.0,0.005854
8238.0,-0.028932
8240.0,-0.011524
8242.0,-0.036667
8244.0,-0.005961
8246.0,0.021849
8248.0,0.004018
8250.0,0.003288
8252.0,-0.030845
8254.0,-0.025136
8256.0,0.009622
8258.0,0.001599
8260.0,0.0536
8262.0,0.018065
8264.0,0.011337
8266.0,0.00876
8268.0,0.012196
8270.0,0.005045
8272.0,-0.024172
8274.0,0.010856
8276.0,0.012757
8278.0,-0.017167
8280.0,-0.00558
8282.0,-0.010425
8284.0,-0.004176
8286.0,0.004962
8288.0,-0.024272
8290.0,-0.003384
8292.0,-0.032377
8294.0,0.020684
8296.0,0.002976
8298.0,0.006137
8300.0,-0.010988
8302.0,0.005305
8304.0,-0.04166
8306.0,-0.005599
8308.0,-0.004026
8310.0,-0.010397
8312.0,-0.023045
8314.0,0.030233
8316.0,0.008253
8318.0,0.00331
8320.0,-0.009354
8322.0,0.044061
8324.0,0.003635
8326.0,-0.023188
8328.0,0.022096
8330.0,0.024617
8332.0,-0.029167
8334.0,0.029851
8336.0,0.001183
8338.0,0.027781
8340.0,-0.014094
8342.0,0.024622
8344.0,-0.024898
8346.0,-0.02294
8348.0,-0.008049
8350.0,-0.013739
8352.0,-0.026675
8354.0,-0.014713
8356.0,-0.020109
8358.0,-0.017223
8360.0,-0.010544
8362.0,-0.010934
8364.0,0.020889
8366.0,-0.01895
8368.0,0.014228
8370.0,0.014098
8372.0,0.017336
8374.0,-0.000585
8376.0,-0.013978
8378.0,-0.025026
8380.0,0.020385
8382.0,0.001135
8384.0,-0.010512
8386.0,-0.029815
8388.0,0.01141
8390.0,0.012617
8392.0,0.004026
8394.0,-0.026269
8396.0,0.012791
8398.0,0.013085
8400.0,-0.029668
8402.0,0.01345
8404.0,0.01865
8406.0,-1.9e-05
8408.0,-0.020216
8410.0,0.032601
8412.0,-0.023371
8414.0,0.010294
8416.0,0.019563
8418.0,0.009272
8420.0,-0.051105
8422.0,-0.010306
8424.0,-0.005097
8426.0,-0.014661
8428.0,0.02478
8430.0,-0.002936
8432.0,0.031622
8434.0,0.007485
8436.0,-0.05308
8438.0,-0.025926
8440.0,0.032884
8442.0,-0.035582
8444.0,0.022676
8446.0,0.014806
8448.0,0.03338
8450.0,0.021982
8452.0,-0.000292
8454.0,0.014648
8456.0,0.009834
8458.0,0.017654
8460.0,-0.018407
8462.0,0.014783
8464.0,0.051537
8466.0,0.011878
8468.0,0.009226
8470.0,0.021415
8472.0,0.03735
8474.0,-0.005404
8476.0,-0.006481
8478.0,0.031113
8480.0,0.022243
8482.0,0.020874
8484.0,0.023978
8486.0,-0.007496
8488.0,0.013577
8490.0,0.036822
8492.0,0.054958
8494.0,0.038266
8496.0,0.05308
8498.0,0.052348
8500.0,0.032771
8502.0,0.025894
8504.0,0.073448
8506.0,0.043162
8508.0,0.041684
8510.0,0.061209
8512.0,0.034508
8514.0,0.060097
8516.0,0.063684
8518.0,0.117853
8520.0,0.095061
8522.0,0.112834
8524.0,0.126976
8526.0,0.135489
8528.0,0.163639
8530.0,0.144463
8532.0,0.167902
8534.0,0.145421
8536.0,0.159651
8538.0,0.187861
8540.0,0.184177
8542.0,0.20968
8544.0,0.209768
8546.0,0.243786
8548.0,0.246062
8550.0,0.249484
8552.0,0.274363
8554.0,0.287081
8556.0,0.317998
8558.0,0.337447
8560.0,0.315691
8562.0,0.379598
8564.0,0.369541
8566.0,0.381929
8568.0,0.415971
8570.0,0.44343
8572.0,0.435451
8574.0,0.461537
8576.0,0.459998
8578.0,0.517795
8580.0,0.529741
8582.0,0.549021
8584.0,0.559563
8586.0,0.587467
8588.0,0.5688
8590.0,0.625286
8592.0,0.683799
8594.0,0.646178
8596.0,0.694553
8598.0,0.645917
8600.0,0.725503
8602.0,0.727098
8604.0,0.771187
8606.0,0.747824
8608.0,0.780736
8610.0,0.799874
8612.0,0.833815
8614.0,0.860326
8616.0,0.855921
8618.0,0.874907
8620.0,0.890768
8622.0,0.933173
8624.0,0.916188
8626.0,0.950635
8628.0,0.940767
8630.0,0.952038
8632.0,0.954651
8634.0,0.973942
8636.0,0.958637
8638.0,0.973869
8640.0,0.986925
8642.0,0.992631
8644.0,1.016579
8646.0,0.995908
8648.0,1.012133
8650.0,1.033416
8652.0,1.000518
8654.0,0.984782
8656.0,0.977389
8658.0,1.030856
8660.0,0.94799
8662.0,0.978968
8664.0,0.959698
8666.0,0.983839
8668.0,0.952733
8670.0,0.933415
8672.0,0.905074
8674.0,0.889867
8676.0,0.89037
8678.0,0.86167
8680.0,0.893214
8682.0,0.829635
8684.0,0.863496
8686.0,0.810274
8688.0,0.826032
8690.0,0.787114
8692.0,0.750603
8694.0,0.751287
8696.0,0.731915
8698.0,0.730325
8700.0,0.654074
8702.0,0.668324
8704.0,0.673712
8706.0,0.655401
8708.0,0.580949
8710.0,0.602233
8712.0,0.586783
8714.0,0.572016
8716.0,0.544698
8718.0,0.503844
8720.0,0.467436
8722.0,0.458904
8724.0,0.413482
8726.0,0.450153
8728.0,0.412987
8730.0,0.401861
8732.0,0.409774
8734.0,0.367715
8736.0,0.323885
8738.0,0.299935
8740.0,0.287538
8742.0,0.296523
8744.0,0.270982
8746.0,0.267578
8748.0,0.233432
8750.0,0.253743
8752.0,0.179386
8754.0,0.19061
8756.0,0.24244
8758.0,0.202633
8760.0,0.194104
8762.0,0.17157
8764.0,0.166583
8766.0,0.135762
8768.0,0.120798
8770.0,0.157794
8772.0,0.096645
8774.0,0.135142
8776.0,0.05849
8778.0,0.089321
8780.0,0.082916
8782.0,0.062958
8784.0,0.048915
8786.0,0.069134
8788.0,0.073941
8790.0,0.03362
8792.0,0.05092
8794.0,0.012936
8796.0,0.017011
8798.0,0.015272
8800.0,0.044938
8802.0,0.013138
8804.0,-0.025439
8806.0,-0.006948
8808.0,-0.051272
8810.0,-0.039793
8812.0,-0.004385
8814.0,-0.027426
8816.0,-0.01757
8818.0,-0.030463
8820.0,-0.069708
8822.0,-0.028239
8824.0,0.00452
8826.0,-0.01786
8828.0,0.008704
8830.0,0.010166
8832.0,0.00426
8834.0,-0.007213
8836.0,0.065427
8838.0,0.02675
8840.0,0.06502
8842.0,0.031134
8844.0,0.073268
8846.0,0.03489
8848.0,0.082928
8850.0,0.064416
8852.0,0.06356
8854.0,0.088062
8856.0,0.100978
8858.0,0.132619
8860.0,0.105332
8862.0,0.121688
8864.0,0.088303
8866.0,0.109998
8868.0,0.131898
8870.0,0.144115
8872.0,0.14608
8874.0,0.143685
8876.0,0.114232
8878.0,0.153163
8880.0,0.149821
8882.0,0.117706
8884.0,0.114386
8886.0,0.132069
8888.0,0.144765
8890.0,0.145477
8892.0,0.124389
8894.0,0.126781
8896.0,0.122315
8898.0,0.158394
8900.0,0.177764
8902.0,0.211835
8904.0,0.162317
8906.0,0.14263
8908.0,0.154668
8910.0,0.154126
8912.0,0.133466
8914.0,0.141928
8916.0,0.121415
8918.0,0.159097
8920.0,0.12245
8922.0,0.142236
8924.0,0.146897
8926.0,0.099893
8928.0,0.106646
8930.0,0.126377
8932.0,0.12181
8934.0,0.09874
8936.0,0.121423
8938.0,0.127739
8940.0,0.10643
8942.0,0.086324
8944.0,0.120956
8946.0,0.078162
8948.0,0.075828
8950.0,0.1019
8952.0,0.085742
8954.0,0.042749
8956.0,0.072643
8958.0,0.109222
8960.0,0.040947
8962.0,0.064318
8964.0,0.001625
8966.0,0.034694
8968.0,0.050491
8970.0,0.056795
8972.0,0.094731
8974.0,0.053636
8976.0,0.034821
8978.0,0.070769
8980.0,0.028418
8982.0,0.034482
8984.0,0.047726
8986.0,0.031381
8988.0,0.007499
8990.0,0.042001
8992.0,0.014531
8994.0,0.017306
8996.0,0.02368
8998.0,-0.000988
9000.0,0.014626
9002.0,0.021143
9004.0,0.048205
9006.0,0.002007
9008.0,0.004792
9010.0,0.029825
9012.0,0.007128
9014.0,-0.003195
9016.0,0.012632
9018.0,-0.011511
9020.0,-0.003347
9022.0,0.00173
9024.0,-0.00888
9026.0,-0.006304
9028.0,0.029672
9030.0,-0.03552
9032.0,-1.8e-05
9034.0,-0.003726
9036.0,0.024809
9038.0,0.00786
9040.0,0.012213
9042.0,0.022073
9044.0,0.016006
9046.0,-0.020116
9048.0,-0.014616
9050.0,0.004739
9052.0,0.019607
9054.0,-0.003377
9056.0,-0.005546
9058.0,0.010634
9060.0,0.028177
9062.0,0.003254
9064.0,0.019483
9066.0,0.028708
9068.0,0.017575
9070.0,0.00866
9072.0,0.013424
9074.0,0.001098
9076.0,0.053999
9078.0,-0.004555
9080.0,-0.010733
9082.0,-0.000841
9084.0,-0.00324
9086.0,-0.006004
9088.0,0.036946
9090.0,0.027562
9092.0,-0.018262
9094.0,0.000371
9096.0,0.000127
9098.0,-0.045946
9100.0,-0.00654
9102.0,0.003936
9104.0,0.003948
9106.0,-0.010767
9108.0,0.011262
9110.0,-0.046316
9112.0,-0.012609
9114.0,0.034058
9116.0,-0.020684
9118.0,-0.006487
9120.0,0.041127
9122.0,-0.008728
9124.0,-0.017604
9126.0,0.028354
9128.0,0.019653
9130.0,0.030374
9132.0,0.002886
9134.0,0.002185
9136.0,-0.038486
9138.0,-0.00694
9140.0,0.030539
9142.0,0.016379
9144.0,-0.007469
9146.0,-0.006079
9148.0,0.039856
9150.0,0.006943
9152.0,-0.000372
9154.0,0.016805
9156.0,0.012234
9158.0,-0.004578
9160.0,-0.031348
9162.0,0.022348
9164.0,0.002091
9166.0,-0.030117
9168.0,0.045135
9170.0,0.020122
9172.0,-0.022843
9174.0,0.013955
9176.0,-0.010895
9178.0,-0.005277
9180.0,-0.009074
9182.0,-0.002968
9184.0,-0.006335
9186.0,0.050607
9188.0,0.031074
9190.0,-0.033208
9192.0,0.022327
9194.0,-0.004504
9196.0,-0.01031
9198.0,-0.008095
9200.0,0.016408
9202.0,-0.021624
9204.0,0.021107
9206.0,0.001655
9208.0,0.03248
9210.0,0.003871
9212.0,0.022116
9214.0,-0.060594
9216.0,0.002444
9218.0,0.003513
9220.0,-0.016458
9222.0,0.015381
9224.0,0.038232
9226.0,-0.023762
9228.0,-0.023826
9230.0,0.014078
9232.0,-0.006221
9234.0,0.037743
9236.0,0.005432
9238.0,0.021965
9240.0,-0.028842
9242.0,0.004924
9244.0,-0.004067
9246.0,0.014056
9248.0,0.020964
9250.0,-0.008987
9252.0,-0.019601
9254.0,-0.025769
9256.0,0.025915
9258.0,-0.016165
9260.0,0.019927
9262.0,-0.006326
9264.0,0.00695
9266.0,-0.006643
9268.0,0.004005
9270.0,-0.018023
9272.0,-0.022052
9274.0,0.026935
9276.0,0.010952
9278.0,-0.028149
9280.0,-0.011007
9282.0,-0.00117
9284.0,-0.010173
9286.0,0.011393
9288.0,0.020254
9290.0,0.014844
9292.0,-0.027603
9294.0,-0.041488
9296.0,0.001642
9298.0,0.007142
9300.0,0.008356
9302.0,-0.003568
9304.0,-0.016061
9306.0,-0.007112
9308.0,-0.009107
9310.0,0.020878
9312.0,0.00326
9314.0,0.0086
9316.0,-0.003102
9318.0,0.021334
9320.0,0.028491
9322.0,-0.005338
9324.0,-0.007713
9326.0,0.003671
9328.0,0.009966
9330.0,0.024036
9332.0,0.00553
9334.0,0.008648
9336.0,0.053207
9338.0,0.04177
9340.0,0.073535
9342.0,0.002606
9344.0,0.022
9346.0,0.012757
9348.0,0.019761
9350.0,-0.003538
9352.0,-0.004205
9354.0,0.026327
9356.0,0.024126
9358.0,0.02314
9360.0,0.035686
9362.0,0.013791
9364.0,0.026122
9366.0,0.051942
9368.0,0.052943
9370.0,0.042671
9372.0,0.126596
9374.0,0.099941
9376.0,0.074919
9378.0,0.056255
9380.0,0.043574
9382.0,0.070557
9384.0,0.104401
9386.0,0.081317
9388.0,0.126327
9390.0,0.117386
9392.0,0.119808
9394.0,0.124389
9396.0,0.140248
9398.0,0.115245
9400.0,0.141052
9402.0,0.182321
9404.0,0.170359
9406.0,0.177374
9408.0,0.186144
9410.0,0.235789
9412.0,0.241586
9414.0,0.229939
9416.0,0.290429
9418.0,0.273815
9420.0,0.30324
9422.0,0.304521
9424.0,0.322347
9426.0,0.327631
9428.0,0.337369
9430.0,0.356844
9432.0,0.378486
9434.0,0.390791
9436.0,0.430419
9438.0,0.416586
9440.0,0.459965
9442.0,0.453395
9444.0,0.547282
9446.0,0.513659
9448.0,0.536599
9450.0,0.581774
9452.0,0.574067
9454.0,0.586037
9456.0,0.624724
9458.0,0.658487
9460.0,0.675778
9462.0,0.699596
9464.0,0.698513
9466.0,0.73883
9468.0,0.726315
9470.0,0.772893
9472.0,0.791133
9474.0,0.837416
9476.0,0.797946
9478.0,0.865256
9480.0,0.862222
9482.0,0.860344
9484.0,0.878966
9486.0,0.923166
9488.0,0.891926
9490.0,0.928573
9492.0,0.972823
9494.0,0.918497
9496.0,0.936881
9498.0,0.940651
9500.0,0.979722
9502.0,0.94187
9504.0,1.02396
9506.0,1.000428
9508.0,1.023023
9510.0,0.996006
9512.0,0.997256
9514.0,0.976516
9516.0,1.00623
9518.0,0.997917
9520.0,1.00287
9522.0,0.956436
9524.0,0.972929
9526.0,0.985271
9528.0,0.973605
9530.0,0.962043
9532.0,0.960401
9534.0,0.919344
9536.0,0.945535
9538.0,0.912523
9540.0,0.94104
9542.0,0.90125
9544.0,0.906375
9546.0,0.867827
9548.0,0.861093
9550.0,0.830488
9552.0,0.812203
9554.0,0.782839
9556.0,0.784523
9558.0,0.787759
9560.0,0.7561
9562.0,0.716079
9564.0,0.704881
9566.0,0.687351
9568.0,0.642948
9570.0,0.644274
9572.0,0.616194
9574.0,0.660311
9576.0,0.580184
9578.0,0.583965
9580.0,0.537884
9582.0,0.518901
9584.0,0.507413
9586.0,0.485933
9588.0,0.440256
9590.0,0.424521
9592.0,0.446788
9594.0,0.393317
9596.0,0.415477
9598.0,0.362155
9600.0,0.359094
9602.0,0.315839
9604.0,0.320159
9606.0,0.268044
9608.0,0.318594
9610.0,0.314325
9612.0,0.273458
9614.0,0.2292
9616.0,0.245801
9618.0,0.207375
9620.0,0.187023
9622.0,0.207661
9624.0,0.193913
9626.0,0.148282
9628.0,0.182855
9630.0,0.165129
9632.0,0.128066
9634.0,0.13626
9636.0,0.107815
9638.0,0.125958
9640.0,0.132032
9642.0,0.131191
9644.0,0.101613
9646.0,0.073826
9648.0,0.076049
9650.0,0.107045
9652.0,0.062571
9654.0,0.072317
9656.0,0.064769
9658.0,0.05936
9660.0,0.031023
9662.0,0.023508
9664.0,0.015309
9666.0,0.020625
9668.0,0.006847
9670.0,0.016927
9672.0,-0.006635
9674.0,-0.04385
9676.0,-0.031445
9678.0,-0.026131
9680.0,-0.021897
9682.0,-0.050616
9684.0,-0.059212
9686.0,-0.037141
9688.0,-0.046351
9690.0,-0.009244
9692.0,-0.045781
9694.0,-0.022672
9696.0,-0.039735
9698.0,-0.045383
9700.0,-0.010308
9702.0,-0.010141
9704.0,0.017308
9706.0,0.020244
9708.0,-0.020198
9710.0,0.030097
9712.0,0.026287
9714.0,0.03941
9716.0,0.045015
9718.0,0.032812
9720.0,0.084905
9722.0,0.016903
9724.0,0.072041
9726.0,0.060101
9728.0,0.055451
9730.0,0.05798
9732.0,0.078276
9734.0,0.069553
9736.0,0.094052
9738.0,0.100421
9740.0,0.099523
9742.0,0.067682
9744.0,0.118414
9746.0,0.123546
9748.0,0.112413
9750.0,0.133183
9752.0,0.133627
9754.0,0.112066
9756.0,0.156578
9758.0,0.14121
9760.0,0.153329
9762.0,0.139113
9764.0,0.164403
9766.0,0.149985
9768.0,0.138964
9770.0,0.116299
9772.0,0.138341
9774.0,0.127739
9776.0,0.127037
9778.0,0.160582
9780.0,0.172424
9782.0,0.16013
9784.0,0.165376
9786.0,0.127345
9788.0,0.161463
9790.0,0.120535
9792.0,0.114748
9794.0,0.126602
9796.0,0.122051
9798.0,0.136077
9800.0,0.135608
9802.0,0.12507
9804.0,0.133533
9806.0,0.103235
9808.0,0.094124
9810.0,0.117325
9812.0,0.132124
9814.0,0.114187
9816.0,0.088932
9818.0,0.109038
9820.0,0.087716
9822.0,0.083543
9824.0,0.079812
9826.0,0.073688
9828.0,0.101056
9830.0,0.088092
9832.0,0.08356
9834.0,0.040643
9836.0,0.094205
9838.0,0.037435
9840.0,0.068422
9842.0,-0.018125
9844.0,0.049208
9846.0,0.058833
9848.0,0.03967
9850.0,0.020953
9852.0,0.006916
9854.0,0.037623
9856.0,0.047351
9858.0,0.04498
9860.0,0.018847
9862.0,0.05044
9864.0,0.038146
9866.0,0.042901
9868.0,0.026853
9870.0,0.038795
9872.0,0.016108
9874.0,0.018746
9876.0,-0.004796
9878.0,-0.028493
9880.0,0.007965
9882.0,0.004101
9884.0,-0.011266
9886.0,-0.003021
9888.0,-0.004253
9890.0,0.01468
9892.0,-0.005062
9894.0,0.003704
9896.0,0.052605
9898.0,-0.024395
9900.0,-0.003359
9902.0,0.038657
9904.0,-0.015664
9906.0,0.011459
9908.0,-0.014854
9910.0,-0.005855
9912.0,0.002746
9914.0,0.009602
9916.0,0.011984
9918.0,-0.014061
9920.0,-0.007106
9922.0,-0.001622
9924.0,0.009562
9926.0,-0.019793
9928.0,-0.006313
9930.0,-0.016572
9932.0,0.011567
9934.0,0.023931
9936.0,-0.053007
9938.0,-0.012747
9940.0,0.005275
9942.0,-0.009154
9944.0,-0.041207
9946.0,0.016049
9948.0,0.017865
9950.0,0.001092
9952.0,-0.017608
9954.0,-0.004557
9956.0,-0.011512
9958.0,-0.008099
9960.0,0.008775
9962.0,0.018417
9964.0,0.009765
9966.0,-0.008968
9968.0,-0.013974
9970.0,0.01097
9972.0,-0.02845
9974.0,-0.020821
9976.0,0.004876
9978.0,-0.016895
9980.0,-0.000826
9982.0,-0.007601
9984.0,0.005787
9986.0,0.01492
9988.0,-0.003465
9990.0,-0.005048
9992.0,0.013569
9994.0,0.019906
9996.0,0.009141
9998.0,-0.009542
10000.0,0.023969
10002.0,-0.017362
10004.0,-0.009889
10006.0,-0.005643
10008.0,0.016287
10010.0,-0.019446
10012.0,-0.014698
10014.0,0.014725
10016.0,0.044161
10018.0,-0.007093
10020.0,-0.016503
10022.0,-0.023577
10024.0,0.019816
10026.0,-0.006796
10028.0,0.028712
10030.0,-0.016381
10032.0,-0.010157
10034.0,0.000367
10036.0,-0.011809
10038.0,-0.006745
10040.0,0.013781
10042.0,-0.01147
10044.0,-0.025652
10046.0,-0.013388
10048.0,0.013767
10050.0,0.000882
10052.0,0.015503
10054.0,-0.00226
10056.0,0.001371
10058.0,-0.000327
10060.0,0.000691
10062.0,-0.005642
10064.0,-0.042494
10066.0,0.021785
10068.0,0.030909
10070.0,0.003533
10072.0,0.013292
10074.0,-0.010562
10076.0,-0.000651
10078.0,0.027379
10080.0,-0.019759
10082.0,0.026679
10084.0,0.020838
10086.0,-0.034711
10088.0,0.003416
10090.0,0.022148
10092.0,-0.004062
10094.0,0.010531
10096.0,-0.028268
10098.0,0.014511
10100.0,0.008672
10102.0,0.023912
10104.0,-0.020372
10106.0,0.002465
10108.0,0.009941
10110.0,-0.005955
10112.0,0.002454
10114.0,0.026063
10116.0,0.000452
10118.0,-0.022235
10120.0,0.001351
10122.0,-0.008605
10124.0,-0.011546
10126.0,0.019125
10128.0,-0.001648
10130.0,-0.017526
10132.0,-0.024099
10134.0,-0.002034
10136.0,0.020355
10138.0,0.007318
10140.0,0.010269
10142.0,-0.024933
10144.0,0.014591
10146.0,-0.010961
10148.0,0.020342
10150.0,0.022929
10152.0,-0.001447
10154.0,-0.028043
10156.0,0.017708
10158.0,0.003671
10160.0,-0.002226
10162.0,-0.014341
10164.0,-0.013799
10166.0,0.004544
10168.0,-0.000517
10170.0,0.020083
10172.0,-0.038578
10174.0,0.00088
10176.0,0.031317
10178.0,0.015044
10180.0,-0.020976
10182.0,0.015454
10184.0,-0.008133
10186.0,-0.0092
10188.0,-0.008548
10190.0,-0.01681
10192.0,0.002356
10194.0,0.013066
10196.0,0.000227
10198.0,-0.006365
10200.0,0.011768
10202.0,-0.008679
10204.0,0.00749
10206.0,0.005658
10208.0,0.032989
10210.0,0.016704
10212.0,0.07281
10214.0,0.021481
10216.0,0.046466
10218.0,0.025383
10220.0,0.027283
10222.0,-0.006157
10224.0,0.046783
10226.0,0.022564
10228.0,0.036614
10230.0,0.047421
10232.0,0.065159
10234.0,0.015971
10236.0,0.059693
10238.0,0.064838
10240.0,0.051007
10242.0,0.066098
10244.0,0.076352
10246.0,0.093937
10248.0,0.074071
10250.0,0.086371
10252.0,0.122896
10254.0,0.110885
10256.0,0.09833
10258.0,0.158007
10260.0,0.14745
10262.0,0.151163
10264.0,0.148781
10266.0,0.194935
10268.0,0.161226
10270.0,0.186504
10272.0,0.222268
10274.0,0.214854
10276.0,0.222641
10278.0,0.257765
10280.0,0.266644
10282.0,0.270993
10284.0,0.270193
10286.0,0.304398
10288.0,0.308619
10290.0,0.349433
10292.0,0.344797
10294.0,0.395561
10296.0,0.430399
10298.0,0.444679
10300.0,0.426024
10302.0,0.435937
10304.0,0.444175
10306.0,0.47039
10308.0,0.49764
10310.0,0.4738
10312.0,0.526036
10314.0,0.539055
10316.0,0.559243
10318.0,0.592759
10320.0,0.66257
10322.0,0.628322
10324.0,0.709093
10326.0,0.668765
10328.0,0.686451
10330.0,0.729952
10332.0,0.745876
10334.0,0.790621
10336.0,0.77928
10338.0,0.805986
10340.0,0.808115
10342.0,0.808881
10344.0,0.852081
10346.0,0.898934
10348.0,0.893436
10350.0,0.893957
10352.0,0.902227
10354.0,0.908375
10356.0,0.972729
10358.0,0.946384
10360.0,0.950809
10362.0,0.941023
10364.0,0.957565
10366.0,0.972352
10368.0,0.998076
10370.0,0.999449
10372.0,0.941252
10374.0,0.984297
10376.0,1.020357
10378.0,1.021581
10380.0,1.033132
10382.0,1.020718
10384.0,1.006859
10386.0,0.98692
10388.0,0.994068
10390.0,0.991437
10392.0,0.976452
10394.0,0.969769
10396.0,0.959461
10398.0,0.952944
10400.0,0.943578
10402.0,0.93107
10404.0,0.904682
10406.0,0.891424
10408.0,0.896907
10410.0,0.849519
10412.0,0.847492
10414.0,0.844178
10416.0,0.853452
10418.0,0.792364
10420.0,0.750867
10422.0,0.750825
10424.0,0.771656
10426.0,0.716031
10428.0,0.731498
10430.0,0.64821
10432.0,0.63946
10434.0,0.638594
10436.0,0.632148
10438.0,0.634108
10440.0,0.558188
10442.0,0.565225
10444.0,0.562304
10446.0,0.544009
10448.0,0.508049
10450.0,0.494342
10452.0,0.459334
10454.0,0.462451
10456.0,0.448866
10458.0,0.409243
10460.0,0.418007
10462.0,0.375455
10464.0,0.343774
10466.0,0.35306
10468.0,0.346671
10470.0,0.306302
10472.0,0.300179
10474.0,0.269184
10476.0,0.273896
10478.0,0.233201
10480.0,0.217161
10482.0,0.254221
10484.0,0.220735
10486.0,0.175675
10488.0,0.180438
10490.0,0.159307
10492.0,0.178188
10494.0,0.143424
10496.0,0.122701
10498.0,0.128554
10500.0,0.08549
10502.0,0.111389
10504.0,0.079072
10506.0,0.08617
10508.0,0.109812
10510.0,0.115237
10512.0,0.097219
10514.0,0.090868
10516.0,0.022905
10518.0,0.045219
10520.0,0.068732
10522.0,0.063202
10524.0,0.033847
10526.0,0.01759
10528.0,0.039885
10530.0,-0.004803
10532.0,-0.002647
10534.0,-0.022421
10536.0,-0.048213
10538.0,-0.013413
10540.0,-0.002483
10542.0,-0.018054
10544.0,-0.04899
10546.0,-0.025181
10548.0,-0.059725
10550.0,-0.096751
10552.0,-0.047975
10554.0,-0.025408
10556.0,-0.063026
10558.0,-0.031401
10560.0,-0.016485
10562.0,-0.004355
10564.0,0.028619
10566.0,-0.010934
10568.0,0.000195
10570.0,0.028845
10572.0,0.054144
10574.0,0.044702
10576.0,0.039878
10578.0,0.050748
10580.0,0.091976
10582.0,0.083553
10584.0,0.086221
10586.0,0.083748
10588.0,0.105743
10590.0,0.102201
10592.0,0.100383
10594.0,0.091103
10596.0,0.098321
10598.0,0.112261
10600.0,0.07689
10602.0,0.099441
10604.0,0.09596
10606.0,0.129855
10608.0,0.155893
10610.0,0.145366
10612.0,0.134781
10614.0,0.107645
10616.0,0.173921
10618.0,0.150303
10620.0,0.164399
10622.0,0.150457
10624.0,0.159368
10626.0,0.171219
10628.0,0.139917
10630.0,0.163702
10632.0,0.107858
10634.0,0.16958
10636.0,0.164551
10638.0,0.151495
10640.0,0.168954
10642.0,0.208543
10644.0,0.158355
10646.0,0.149947
10648.0,0.13129
10650.0,0.14581
10652.0,0.130154
10654.0,0.15957
10656.0,0.131884
10658.0,0.139176
10660.0,0.140412
10662.0,0.133824
10664.0,0.126597
10666.0,0.125005
10668.0,0.10886
10670.0,0.122386
10672.0,0.115072
10674.0,0.101708
10676.0,0.091267
10678.0,0.134217
10680.0,0.090838
10682.0,0.12141
10684.0,0.106284
10686.0,0.067505
10688.0,0.083351
10690.0,0.066859
10692.0,0.068429
10694.0,0.070418
10696.0,0.096177
10698.0,0.051186
10700.0,0.0806
10702.0,0.036207
10704.0,0.051806
10706.0,0.055055
10708.0,0.046083
10710.0,0.00264
10712.0,0.03103
10714.0,0.008721
10716.0,0.036208
10718.0,0.030364
10720.0,0.013048
10722.0,0.046375
10724.0,0.039699
10726.0,0.012306
10728.0,0.072508
10730.0,0.019558
10732.0,0.038363
10734.0,0.010144
10736.0,-0.015516
10738.0,0.035809
10740.0,0.022759
10742.0,-0.026812
10744.0,0.01161
10746.0,0.007036
10748.0,0.021585
10750.0,0.01292
10752.0,0.011562
10754.0,0.032988
10756.0,-0.007969
10758.0,-0.002405
10760.0,-0.001962
10762.0,0.008252
10764.0,-0.001676
10766.0,-0.002659
10768.0,-0.013575
10770.0,-0.013092
10772.0,0.00679
10774.0,-0.010206
10776.0,0.001379
10778.0,0.021444
10780.0,0.011321
10782.0,0.023777
10784.0,-0.033276
10786.0,-0.010859
10788.0,-0.00494
10790.0,0.004551
10792.0,0.002732
10794.0,-0.010318
10796.0,0.012843
10798.0,0.007502
10800.0,-0.020488
10802.0,0.009749
10804.0,-0.02101
10806.0,0.036
10808.0,-0.003329
10810.0,0.00062
10812.0,0.018553
10814.0,-0.016304
10816.0,-0.030791
10818.0,-0.008209
10820.0,0.028623
10822.0,0.015344
10824.0,-0.020562
10826.0,-0.011876
10828.0,0.024977
10830.0,0.037892
10832.0,-0.020819
10834.0,-0.003832
10836.0,-0.000207
10838.0,-0.034957
10840.0,0.010996
10842.0,0.016431
10844.0,0.005826
10846.0,-0.013436
10848.0,-0.001357
10850.0,0.011136
10852.0,-0.008479
10854.0,-0.006295
10856.0,-0.003483
10858.0,0.020505
10860.0,0.02703
10862.0,0.014406
10864.0,0.000512
10866.0,0.007884
10868.0,0.007838
10870.0,-0.015067
10872.0,0.025171
10874.0,-0.012021
10876.0,0.003989
10878.0,-0.018423
10880.0,-0.009675
10882.0,0.017821
10884.0,-0.009679
10886.0,-0.02679
10888.0,-0.042055
10890.0,-0.018713
10892.0,-0.011861
10894.0,-0.000669
10896.0,-0.023128
10898.0,-0.002871
10900.0,-0.015707
10902.0,0.006056
10904.0,7.5e-05
10906.0,-0.013889
10908.0,-0.015419
10910.0,-0.004009
10912.0,0.002739
10914.0,-0.012873
10916.0,0.012059
10918.0,-0.011278
10920.0,-0.022156
10922.0,0.010386
10924.0,-0.026255
10926.0,0.027855
10928.0,-0.006301
10930.0,-0.003107
10932.0,0.033585
10934.0,-0.020735
10936.0,0.022335
10938.0,0.00314
10940.0,0.00538
10942.0,0.023746
10944.0,0.032356
10946.0,0.010145
10948.0,0.00954
10950.0,-0.003341
10952.0,-0.02013
10954.0,-0.023659
10956.0,0.019025
10958.0,0.000728
10960.0,-0.016618
10962.0,-0.004921
10964.0,0.008996
10966.0,-0.004863
10968.0,0.006893
10970.0,0.01384
10972.0,0.02461
10974.0,-0.020997
10976.0,-0.005966
10978.0,0.003618
10980.0,0.001723
10982.0,0.012196
10984.0,-0.032507
10986.0,-0.019892
10988.0,0.020639
10990.0,0.035194
10992.0,0.00031
10994.0,-0.021511
10996.0,-0.030141
10998.0,0.013837
11000.0,0.035617
11002.0,0.019663
11004.0,-0.007483
11006.0,0.010746
11008.0,-0.030445
11010.0,-0.014376
11012.0,-0.003804
11014.0,-0.012577
11016.0,-0.027514
11018.0,0.02477
11020.0,0.014914
11022.0,-0.024427
11024.0,0.050031
11026.0,0.038037
11028.0,0.00733
11030.0,0.007934
11032.0,-0.027479
11034.0,0.030663
11036.0,0.001274
11038.0,0.028185
11040.0,0.016028
11042.0,0.007227
11044.0,0.003157
11046.0,-0.018472
11048.0,0.016111
11050.0,0.01339
11052.0,0.003034
11054.0,-0.03053
11056.0,-0.006015
11058.0,0.024966
11060.0,0.033924
11062.0,0.06304
11064.0,0.004657
11066.0,0.014983
11068.0,0.036225
11070.0,0.028433
11072.0,0.013735
11074.0,0.055711
11076.0,0.060029
11078.0,0.038233
11080.0,0.040547
11082.0,0.088477
11084.0,0.056506
11086.0,0.038549
11088.0,0.077044
11090.0,0.037024
11092.0,0.084423
11094.0,0.085711
11096.0,0.09271
11098.0,0.098566
11100.0,0.140716
11102.0,0.105182
11104.0,0.11733
11106.0,0.138855
11108.0,0.148209
11110.0,0.158143
11112.0,0.173105
11114.0,0.173808
11116.0,0.169476
11118.0,0.194503
11120.0,0.23634
11122.0,0.234246
11124.0,0.257102
11126.0,0.236269
11128.0,0.29947
11130.0,0.305115
11132.0,0.288147
11134.0,0.298996
11136.0,0.325774
11138.0,0.383613
11140.0,0.396047
11142.0,0.338704
11144.0,0.427254
11146.0,0.449176
11148.0,0.426529
11150.0,0.471118
11152.0,0.472591
11154.0,0.505583
11156.0,0.532287
11158.0,0.526589
11160.0,0.518666
11162.0,0.597687
11164.0,0.604148
11166.0,0.581893
11168.0,0.660698
11170.0,0.680024
11172.0,0.651318
11174.0,0.706236
11176.0,0.705182
11178.0,0.737111
11180.0,0.780486
11182.0,0.782508
11184.0,0.799843
11186.0,0.804544
11188.0,0.842716
11190.0,0.859221
11192.0,0.885427
11194.0,0.906081
11196.0,0.880488
11198.0,0.911376
11200.0,0.884102
11202.0,0.955385
11204.0,0.915109
11206.0,0.961386
11208.0,0.929348
11210.0,0.975478
11212.0,0.93979
11214.0,0.990216
11216.0,0.998662
11218.0,0.979072
11220.0,1.021438
11222.0,1.013533
11224.0,0.976434
11226.0,0.981559
11228.0,1.02648
11230.0,0.967131
11232.0,1.018738
11234.0,0.997118
11236.0,0.956338
11238.0,0.952859
11240.0,0.975732
11242.0,0.962067
11244.0,0.944935
11246.0,0.960014
11248.0,0.944516
11250.0,0.893564
11252.0,0.880198
11254.0,0.869246
11256.0,0.856253
11258.0,0.841293
11260.0,0.850838
11262.0,0.777791
11264.0,0.831115
11266.0,0.800301
11268.0,0.756541
11270.0,0.766098
11272.0,0.740427
11274.0,0.701614
11276.0,0.721032
11278.0,0.668251
11280.0,0.648633
11282.0,0.642054
11284.0,0.595913
11286.0,0.616881
11288.0,0.597985
11290.0,0.531241
11292.0,0.548097
11294.0,0.538561
11296.0,0.492332
11298.0,0.498748
11300.0,0.482929
11302.0,0.439999
11304.0,0.439942
11306.0,0.423383
11308.0,0.377008
11310.0,0.355117
11312.0,0.383869
11314.0,0.314593
11316.0,0.34149
11318.0,0.293411
11320.0,0.294786
11322.0,0.268508
11324.0,0.241454
11326.0,0.250652
11328.0,0.238117
11330.0,0.20067
11332.0,0.209677
11334.0,0.180331
11336.0,0.183256
11338.0,0.147482
11340.0,0.140043
11342.0,0.179863
11344.0,0.1605
11346.0,0.126598
11348.0,0.12854
11350.0,0.116095
11352.0,0.10674
11354.0,0.128316
11356.0,0.097119
11358.0,0.072471
11360.0,0.046242
11362.0,0.038674
11364.0,0.093215
11366.0,0.062668
11368.0,0.064093
11370.0,0.048789
11372.0,0.016808
11374.0,0.009834
11376.0,0.007492
11378.0,-0.039513
11380.0,-0.040288
11382.0,-0.02427
11384.0,-0.040018
11386.0,-0.033692
11388.0,-0.021909
11390.0,0.004463
11392.0,-0.009088
11394.0,-0.051784
11396.0,-0.052708
11398.0,-0.021044
11400.0,-0.028792
11402.0,-0.014083
11404.0,-0.008587
11406.0,0.008168
11408.0,-0.033013
11410.0,0.017756
11412.0,-0.010087
11414.0,0.050009
11416.0,0.031435
11418.0,0.033722
11420.0,0.068328
11422.0,0.077237
11424.0,0.068714
11426.0,0.092442
11428.0,0.056513
11430.0,0.093185
11432.0,0.100722
11434.0,0.089484
11436.0,0.115494
11438.0,0.118932
11440.0,0.140972
11442.0,0.104172
11444.0,0.095853
11446.0,0.106272
11448.0,0.130666
11450.0,0.132558
11452.0,0.132304
11454.0,0.111133
11456.0,0.132076
11458.0,0.159825
11460.0,0.155593
11462.0,0.125257
11464.0,0.152682
11466.0,0.135301
11468.0,0.149715
11470.0,0.135404
11472.0,0.138954
11474.0,0.137875
11476.0,0.143958
11478.0,0.132007
11480.0,0.16738
11482.0,0.145255
11484.0,0.161557
11486.0,0.148184
11488.0,0.143404
11490.0,0.116523
11492.0,0.117427
11494.0,0.13404
11496.0,0.112762
11498.0,0.147199
11500.0,0.122114
11502.0,0.109076
11504.0,0.120118
11506.0,0.127971
11508.0,0.113161
11510.0,0.15261
11512.0,0.132866
11514.0,0.106232
11516.0,0.08961
11518.0,0.071017
11520.0,0.104185
11522.0,0.111187
11524.0,0.08423
11526.0,0.067947
11528.0,0.076695
11530.0,0.0608
11532.0,0.068973
11534.0,0.077338
11536.0,0.058209
11538.0,0.069078
11540.0,0.074111
11542.0,0.031917
11544.0,0.02979
11546.0,0.047456
11548.0,-0.012288
11550.0,0.058899
11552.0,0.029644
11554.0,0.036555
11556.0,0.045558
11558.0,-0.007054
11560.0,0.049109
11562.0,0.035972
11564.0,-0.025148
11566.0,-0.000777
11568.0,0.061571
11570.0,0.030635
11572.0,0.038171
11574.0,0.01346
11576.0,0.034479
11578.0,-0.021733
11580.0,-0.006451
11582.0,0.044334
11584.0,0.028152
11586.0,0.00304
11588.0,0.019243
11590.0,-0.007553
11592.0,-0.021259
11594.0,0.022302
11596.0,-0.00188
11598.0,0.007663
11600.0,0.014549
11602.0,0.011321
11604.0,0.026337
11606.0,-0.007641
11608.0,-0.0071
11610.0,0.017077
11612.0,0.024411
11614.0,-0.021123
11616.0,-0.029281
11618.0,-0.012953
11620.0,0.003924
11622.0,0.005901
11624.0,-0.020886
11626.0,0.006044
11628.0,0.0323
11630.0,-0.044197
11632.0,0.006001
11634.0,0.003298
11636.0,-0.007972
11638.0,0.011053
11640.0,0.01638
11642.0,-0.024591
11644.0,0.002445
11646.0,0.013235
11648.0,-0.002859
11650.0,0.008954
11652.0,0.011963
11654.0,0.024728
11656.0,0.013106
11658.0,0.014208
11660.0,0.027122
11662.0,0.003674
11664.0,0.034255
11666.0,-0.024434
11668.0,0.006223
11670.0,0.005996
11672.0,0.006103
11674.0,-0.012182
11676.0,0.008104
11678.0,-0.018394
11680.0,-0.008201
11682.0,-0.017938
11684.0,0.016087
11686.0,0.00215
11688.0,-0.019946
11690.0,-0.031724
11692.0,-0.004282
11694.0,0.001524
11696.0,0.038551
11698.0,0.019969
11700.0,-0.030597
11702.0,0.023309
11704.0,0.012659
11706.0,0.043803
11708.0,0.025218
11710.0,0.027489
11712.0,-0.009362
11714.0,-0.017615
11716.0,0.009913
11718.0,0.0124
11720.0,0.021549
11722.0,-0.039549
11724.0,-0.00949
11726.0,-0.028332
11728.0,0.019849
11730.0,0.01127
11732.0,0.019326
11734.0,0.001014
11736.0,-0.040674
11738.0,0.002923
11740.0,0.008377
11742.0,-0.009767
11744.0,0.00802
11746.0,-0.002641
11748.0,0.01173
11750.0,-0.016488
11752.0,-0.028372
11754.0,0.018141
11756.0,0.055614
11758.0,-0.026877
11760.0,-0.018445
11762.0,0.006833
11764.0,-0.007706
11766.0,0.021475
11768.0,-0.001495
11770.0,0.015446
11772.0,-0.017429
11774.0,-0.011722
11776.0,0.004299
11778.0,-0.00982
11780.0,-0.03899
11782.0,0.017584
11784.0,0.038606
11786.0,-0.014483
11788.0,-0.03008
11790.0,0.035012
11792.0,0.000738
11794.0,0.022104
11796.0,0.002908
11798.0,0.026695
11800.0,-0.01423
11802.0,0.041092
11804.0,-0.018025
11806.0,0.017428
11808.0,0.018279
11810.0,-0.023696
11812.0,0.01441
11814.0,-0.008703
11816.0,0.010441
11818.0,0.013985
11820.0,-0.038989
11822.0,0.01778
11824.0,-0.024008
11826.0,0.0171
11828.0,0.025735
11830.0,-0.01559
11832.0,-0.034705
11834.0,0.010309
11836.0,0.020814
11838.0,-0.012723
11840.0,-0.005814
11842.0,0.005807
11844.0,0.025914
11846.0,-0.017315
11848.0,-0.007603
11850.0,-0.007682
11852.0,-0.023919
11854.0,-0.011129
11856.0,0.003627
11858.0,0.00692
11860.0,0.03293
11862.0,0.016725
11864.0,-0.011901
11866.0,-0.002653
11868.0,-0.005468
11870.0,-0.061668
11872.0,0.017325
11874.0,0.015501
11876.0,-0.003738
11878.0,0.036453
11880.0,-0.00754
11882.0,-0.014536
11884.0,-0.015577
11886.0,0.013466
11888.0,0.030143
11890.0,0.028122
11892.0,-0.023654
11894.0,0.017464
11896.0,-0.034958
11898.0,0.007463
11900.0,-0.031405
11902.0,0.014442
11904.0,0.020922
11906.0,0.044305
11908.0,0.004785
11910.0,0.029979
11912.0,0.011965
11914.0,0.017599
11916.0,-0.010959
11918.0,-0.015471
11920.0,0.060628
11922.0,0.004941
11924.0,0.021064
11926.0,0.029432
11928.0,0.023178
11930.0,0.042876
11932.0,0.056659
11934.0,0.053757
11936.0,0.070276
11938.0,0.117412
11940.0,0.058104
11942.0,0.075994
11944.0,0.075739
11946.0,0.06177
11948.0,0.091955
11950.0,0.068357
11952.0,0.059758
11954.0,0.10274
11956.0,0.127794
11958.0,0.081071
11960.0,0.12931
11962.0,0.134896
11964.0,0.115838
11966.0,0.121725
11968.0,0.091613
11970.0,0.149375
11972.0,0.184099
11974.0,0.202556
11976.0,0.23674
11978.0,0.210737
11980.0,0.205403
11982.0,0.249974
11984.0,0.262622
11986.0,0.20712
11988.0,0.274236
11990.0,0.272809
11992.0,0.339996
11994.0,0.322529
11996.0,0.348935
11998.0,0.335953
12000.0,0.362013
12002.0,0.342113
12004.0,0.393687
12006.0,0.458611
12008.0,0.446943
12010.0,0.442682
12012.0,0.456061
12014.0,0.5116
12016.0,0.519659
12018.0,0.530028
12020.0,0.543019
12022.0,0.592185
12024.0,0.558638
12026.0,0.601999
12028.0,0.625234
12030.0,0.643343
12032.0,0.695175
12034.0,0.714174
12036.0,0.701227
12038.0,0.747505
12040.0,0.745286
12042.0,0.755805
12044.0,0.777319
12046.0,0.796734
12048.0,0.832485
12050.0,0.839241
12052.0,0.836555
12054.0,0.837042
12056.0,0.894609
12058.0,0.921859
12060.0,0.900058
12062.0,0.939571
12064.0,0.964625
12066.0,0.940434
12068.0,0.982168
12070.0,0.960569
12072.0,0.971413
12074.0,0.961771
12076.0,0.974567
12078.0,0.984594
12080.0,1.038706
12082.0,0.98271
12084.0,1.002796
12086.0,0.997696
12088.0,0.99093
12090.0,0.985069
12092.0,0.985674
12094.0,0.969284
12096.0,0.955957
12098.0,0.963385
12100.0,0.993403
12102.0,0.959603
12104.0,0.936811
12106.0,0.965451
12108.0,0.92897
12110.0,0.915381
12112.0,0.889655
12114.0,0.906724
12116.0,0.864344
12118.0,0.835488
12120.0,0.796069
12122.0,0.800828
12124.0,0.808804
12126.0,0.779152
12128.0,0.752283
12130.0,0.753725
12132.0,0.728505
12134.0,0.689907
12136.0,0.688015
12138.0,0.672453
12140.0,0.632963
12142.0,0.638745
12144.0,0.65809
12146.0,0.586558
12148.0,0.594963
12150.0,0.554936
12152.0,0.520727
12154.0,0.521232
12156.0,0.504722
12158.0,0.497224
12160.0,0.479908
12162.0,0.462497
12164.0,0.408631
12166.0,0.385984
12168.0,0.400607
12170.0,0.328667
12172.0,0.359502
12174.0,0.34182
12176.0,0.320549
12178.0,0.262337
12180.0,0.262739
12182.0,0.229078
12184.0,0.271136
12186.0,0.222488
12188.0,0.218629
12190.0,0.222998
12192.0,0.220056
12194.0,0.171221
12196.0,0.168443
12198.0,0.165094
12200.0,0.171704
12202.0,0.158514
12204.0,0.170399
12206.0,0.117574
12208.0,0.099105
12210.0,0.089924
12212.0,0.111909
12214.0,0.100379
12216.0,0.107301
12218.0,0.065067
12220.0,0.042057
12222.0,0.051504
12224.0,0.050618
12226.0,0.075811
12228.0,0.042165
12230.0,0.052858
12232.0,0.039635
12234.0,0.023997
12236.0,0.017318
12238.0,-0.015676
12240.0,0.014877
12242.0,0.023362
12244.0,-0.008212
12246.0,-0.042888
12248.0,-0.037625
12250.0,-0.055309
12252.0,-0.03222
12254.0,-0.055635
12256.0,-0.03662
12258.0,-0.018569
12260.0,-0.05059
12262.0,-0.093446
12264.0,-0.007639
12266.0,-0.024004
12268.0,-0.014022
12270.0,0.048486
12272.0,-0.019006
12274.0,0.011428
12276.0,-0.001367
12278.0,0.034975
12280.0,0.066503
12282.0,0.032635
12284.0,0.057776
12286.0,0.04725
12288.0,0.047605
12290.0,0.093119
12292.0,0.063726
12294.0,0.063103
12296.0,0.096588
12298.0,0.10475
12300.0,0.107017
12302.0,0.073611
12304.0,0.073863
12306.0,0.118261
12308.0,0.144803
12310.0,0.092531
12312.0,0.122306
12314.0,0.119222
12316.0,0.130655
12318.0,0.160886
12320.0,0.123328
12322.0,0.14117
12324.0,0.142469
12326.0,0.130983
12328.0,0.156845
12330.0,0.159376
12332.0,0.146708
12334.0,0.167024
12336.0,0.133057
12338.0,0.145294
12340.0,0.134556
12342.0,0.15876
12344.0,0.150964
12346.0,0.167649
12348.0,0.170715
12350.0,0.163286
12352.0,0.158531
12354.0,0.15685
12356.0,0.176955
12358.0,0.108846
12360.0,0.154281
12362.0,0.138427
12364.0,0.108927
12366.0,0.12255
12368.0,0.109368
12370.0,0.129587
12372.0,0.131341
12374.0,0.121939
12376.0,0.09255
12378.0,0.096444
12380.0,0.105041
12382.0,0.088259
12384.0,0.078648
12386.0,0.061061
12388.0,0.08592
12390.0,0.102981
12392.0,0.074721
12394.0,0.081796
12396.0,0.047277
12398.0,0.056783
12400.0,0.09781
12402.0,0.035552
12404.0,0.105534
12406.0,0.045261
12408.0,0.018846
12410.0,0.046775
12412.0,0.046611
12414.0,0.054098
12416.0,0.058716
12418.0,0.029419
12420.0,0.044559
12422.0,0.043121
12424.0,0.047523
12426.0,0.061093
12428.0,0.04161
12430.0,0.024907
12432.0,0.026428
12434.0,0.034279
12436.0,-0.008407
12438.0,0.032623
12440.0,0.012167
12442.0,0.001327
12444.0,0.033616
12446.0,0.03179
12448.0,-0.013712
12450.0,0.001396
12452.0,-0.004621
12454.0,-0.031121
12456.0,0.02179
12458.0,0.007017
12460.0,-0.02877
12462.0,0.018856
12464.0,0.033378
12466.0,-0.00752
12468.0,-0.003975
12470.0,0.004994
12472.0,0.032147
12474.0,-0.015882
12476.0,0.014293
12478.0,0.023873
12480.0,0.002637
12482.0,0.000195
12484.0,-0.012536
12486.0,-0.011299
12488.0,-0.00323
12490.0,-0.022167
12492.0,0.007632
12494.0,0.048284
12496.0,0.01689
12498.0,-0.014561
12500.0,-0.002403
12502.0,-0.007772
12504.0,-0.031077
12506.0,0.04355
12508.0,-0.048422
12510.0,-0.00937
12512.0,-0.004982
12514.0,-0.018185
12516.0,0.021439
12518.0,-0.016122
12520.0,-0.021804
12522.0,0.005927
12524.0,-0.000412
12526.0,-0.04182
12528.0,-0.012153
12530.0,-0.006505
12532.0,0.04735
12534.0,0.001003
12536.0,0.054752
12538.0,-0.016358
12540.0,-0.016312
12542.0,0.012356
12544.0,0.030884
12546.0,-0.038404
12548.0,0.004405
12550.0,-0.025377
12552.0,0.009218
12554.0,-0.018821
12556.0,0.00801
12558.0,-6.8e-05
12560.0,-0.018878
12562.0,0.031553
12564.0,0.01683
12566.0,-0.014196
12568.0,-0.023694
12570.0,-0.011437
12572.0,-0.019825
12574.0,-0.010006
12576.0,0.027359
12578.0,-0.029027
12580.0,0.010266
12582.0,0.021557
12584.0,-0.011044
12586.0,0.015871
12588.0,0.021549
12590.0,0.05178
12592.0,-0.010165
12594.0,0.007385
12596.0,-0.009572
12598.0,-0.023484
12600.0,0.017625
12602.0,0.029914
12604.0,-0.020008
12606.0,-0.012887
12608.0,-0.038305
12610.0,0.00219
12612.0,0.018398
12614.0,-0.011798
12616.0,0.005638
12618.0,-0.008911
12620.0,-0.018599
12622.0,-0.010082
12624.0,0.027139
12626.0,0.030096
12628.0,-0.001344
12630.0,-0.011898
12632.0,-0.03569
12634.0,0.018286
12636.0,0.021044
12638.0,-0.01693
12640.0,0.006179
12642.0,0.00619
12644.0,0.00776
12646.0,0.039083
12648.0,-0.005212
12650.0,0.023348
12652.0,0.02886
12654.0,0.021733
12656.0,0.004521
12658.0,0.013785
12660.0,0.00252
12662.0,0.032848
12664.0,0.03745
12666.0,-0.015587
12668.0,0.011648
12670.0,-0.000108
12672.0,-0.010984
12674.0,-0.018186
12676.0,0.057577
12678.0,0.013959
12680.0,-0.007229
12682.0,0.018063
12684.0,-0.003797
12686.0,0.024243
12688.0,0.00079
12690.0,-0.03004
12692.0,0.016389
12694.0,0.014723
12696.0,-0.035075
12698.0,0.015252
12700.0,0.010663
12702.0,0.007126
12704.0,-0.001169
12706.0,0.039765
12708.0,0.00995
12710.0,-0.040046
12712.0,0.002555
12714.0,0.009412
12716.0,0.004278
12718.0,0.018935
12720.0,-0.002887
12722.0,-0.008892
12724.0,-0.026729
12726.0,0.010359
12728.0,0.024703
12730.0,0.000823
12732.0,-0.011809
12734.0,-0.008054
12736.0,0.00422
12738.0,-0.02685
12740.0,0.00226
12742.0,-0.040122
12744.0,-0.013761
12746.0,0.022836
12748.0,0.018328
12750.0,0.002521
12752.0,0.014484
12754.0,0.013244
12756.0,-0.02566
12758.0,-0.005492
12760.0,0.042588
12762.0,0.003937
12764.0,0.014445
12766.0,-0.002182
12768.0,0.002678
12770.0,0.012686
12772.0,0.005004
12774.0,0.006774
12776.0,0.058961
12778.0,0.000947
12780.0,0.087678
12782.0,0.050332
12784.0,-0.033124
12786.0,0.01862
12788.0,0.067421
12790.0,0.032672
12792.0,0.013016
12794.0,0.038566
12796.0,0.050645
12798.0,0.032625
12800.0,0.012127
12802.0,0.06291
12804.0,0.044588
12806.0,0.084751
12808.0,0.079592
12810.0,0.070594
12812.0,0.043554
12814.0,0.083891
12816.0,0.082671
12818.0,0.139253
12820.0,0.082925
12822.0,0.09999
12824.0,0.095619
12826.0,0.117075
12828.0,0.120202
12830.0,0.163813
12832.0,0.182668
12834.0,0.152958
12836.0,0.168515
12838.0,0.187722
12840.0,0.134931
12842.0,0.214699
12844.0,0.191807
12846.0,0.205658
12848.0,0.246357
12850.0,0.218755
12852.0,0.261057
12854.0,0.28005
12856.0,0.301929
12858.0,0.343133
12860.0,0.313941
12862.0,0.351374
12864.0,0.375449
12866.0,0.383341
12868.0,0.397458
12870.0,0.396172
12872.0,0.375695
12874.0,0.438087
12876.0,0.484494
12878.0,0.471735
12880.0,0.516834
12882.0,0.57601
12884.0,0.570545
12886.0,0.574275
12888.0,0.603598
12890.0,0.603742
12892.0,0.658153
12894.0,0.654075
12896.0,0.674221
12898.0,0.645949
12900.0,0.698858
12902.0,0.714504
12904.0,0.747088
12906.0,0.736197
12908.0,0.812138
12910.0,0.833994
12912.0,0.831236
12914.0,0.867647
12916.0,0.857367
12918.0,0.860957
12920.0,0.857041
12922.0,0.914832
12924.0,0.915763
12926.0,0.942133
12928.0,0.935707
12930.0,0.929643
12932.0,0.939929
12934.0,0.9698
12936.0,0.985833
12938.0,0.987392
12940.0,0.981488
12942.0,1.020359
12944.0,0.997399
12946.0,0.986069
12948.0,0.985933
12950.0,0.988934
12952.0,1.002013
12954.0,0.993257
12956.0,0.99685
12958.0,0.976706
12960.0,0.994186
12962.0,0.990744
12964.0,0.986416
12966.0,0.972804
12968.0,0.933825
12970.0,0.9399
12972.0,0.91123
12974.0,0.931194
12976.0,0.907166
12978.0,0.88792
12980.0,0.869462
12982.0,0.834212
12984.0,0.844897
12986.0,0.88191
12988.0,0.813876
12990.0,0.770504
12992.0,0.782658
12994.0,0.745622
12996.0,0.732036
12998.0,0.709868
13000.0,0.685798
13002.0,0.694588
13004.0,0.629396
13006.0,0.625148
13008.0,0.630555
13010.0,0.618182
13012.0,0.579795
13014.0,0.585559
13016.0,0.574243
13018.0,0.466524
13020.0,0.462131
13022.0,0.469328
13024.0,0.424182
13026.0,0.453108
13028.0,0.419732
13030.0,0.383138
13032.0,0.384219
13034.0,0.376217
13036.0,0.371227
13038.0,0.299089
13040.0,0.341603
13042.0,0.284739
13044.0,0.265567
13046.0,0.281149
13048.0,0.255994
13050.0,0.214697
13052.0,0.221199
13054.0,0.195692
13056.0,0.213032
13058.0,0.233974
13060.0,0.158671
13062.0,0.200311
13064.0,0.154044
13066.0,0.125535
13068.0,0.179261
13070.0,0.133052
13072.0,0.127068
13074.0,0.099391
13076.0,0.130763
13078.0,0.089389
13080.0,0.091297
13082.0,0.094809
13084.0,0.106161
13086.0,0.085241
13088.0,0.070609
13090.0,0.056284
13092.0,0.034156
13094.0,0.064211
13096.0,0.064541
13098.0,0.041061
13100.0,0.036635
13102.0,0.010391
13104.0,0.006517
13106.0,-0.029721
13108.0,0.01457
13110.0,0.024532
13112.0,-0.050659
13114.0,-0.056688
13116.0,-0.027746
13118.0,-0.020517
13120.0,-0.061574
13122.0,-0.0348
13124.0,-0.035135
13126.0,-0.045449
13128.0,-0.033316
13130.0,-0.020498
13132.0,-0.021819
13134.0,0.0165
13136.0,0.016805
13138.0,-0.027236
13140.0,0.036227
13142.0,0.0037
13144.0,7.8e-05
13146.0,0.065612
13148.0,0.045975
13150.0,0.059253
13152.0,0.073382
13154.0,0.045778
13156.0,0.114029
13158.0,0.059975
13160.0,0.136804
13162.0,0.098851
13164.0,0.104185
13166.0,0.099025
13168.0,0.100609
13170.0,0.087693
13172.0,0.106719
13174.0,0.101814
13176.0,0.125052
13178.0,0.103407
13180.0,0.138729
13182.0,0.11118
13184.0,0.122986
13186.0,0.153945
13188.0,0.134842
13190.0,0.160042
13192.0,0.144858
13194.0,0.114588
13196.0,0.121226
13198.0,0.12529
13200.0,0.106086
13202.0,0.148542
13204.0,0.169647
13206.0,0.171658
13208.0,0.120997
13210.0,0.141366
13212.0,0.138166
13214.0,0.109429
13216.0,0.102585
13218.0,0.140871
13220.0,0.147529
13222.0,0.132802
13224.0,0.106601
13226.0,0.164843
13228.0,0.137013
13230.0,0.130876
13232.0,0.109438
13234.0,0.10493
13236.0,0.163977
13238.0,0.160978
13240.0,0.129633
13242.0,0.093521
13244.0,0.065758
13246.0,0.097563
13248.0,0.081445
13250.0,0.093116
13252.0,0.103912
13254.0,0.066439
13256.0,0.080722
13258.0,0.073245
13260.0,0.069959
13262.0,0.029931
13264.0,0.043533
13266.0,0.05412
13268.0,0.043142
13270.0,0.067494
13272.0,0.072676
13274.0,0.043265
13276.0,0.09086
13278.0,0.059415
13280.0,0.057028
13282.0,0.028897
13284.0,0.027437
13286.0,0.038624
13288.0,0.002758
13290.0,0.028318
13292.0,-0.0016
13294.0,0.012409
13296.0,0.046676
13298.0,0.017004
13300.0,0.012324
13302.0,0.029395
13304.0,-0.016471
13306.0,0.020752
13308.0,0.009314
13310.0,0.00372
13312.0,0.010703
13314.0,0.012741
13316.0,0.013025
13318.0,-0.035673
13320.0,-0.011395
13322.0,0.019836
13324.0,-0.022301
13326.0,0.030167
13328.0,-0.002187
13330.0,-0.022266
13332.0,0.067103
13334.0,0.016303
13336.0,0.020771
13338.0,-0.014582
13340.0,0.005557
13342.0,-0.02759
13344.0,0.001603
13346.0,0.002486
13348.0,0.02103
13350.0,0.002876
13352.0,0.019251
13354.0,0.015691
13356.0,0.044344
13358.0,0.017648
13360.0,-0.009217
13362.0,0.0128
13364.0,-0.026386
13366.0,-0.004713
13368.0,0.012141
13370.0,0.011743
13372.0,-0.001216
13374.0,-0.020136
13376.0,0.002117
13378.0,-0.041315
13380.0,0.0207
13382.0,0.013455
13384.0,-0.026809
13386.0,0.002203
13388.0,0.000689
13390.0,-0.008208
13392.0,0.018706
13394.0,-0.000277
13396.0,-0.039225
13398.0,-0.045987
13400.0,0.031866
13402.0,0.000198
13404.0,-0.023485
13406.0,-0.028151
13408.0,0.036931
13410.0,0.014909
13412.0,-0.037796
13414.0,-0.014418
13416.0,-0.009851
13418.0,0.010579
13420.0,-0.014158
13422.0,0.008523
13424.0,-0.004886
13426.0,-0.028258
13428.0,0.00295
13430.0,0.001681
13432.0,-0.012393
13434.0,-0.029814
13436.0,-0.011004
13438.0,-0.038135
13440.0,-0.024963
13442.0,-0.004036
13444.0,-0.020845
13446.0,-0.001402
13448.0,-0.022629
13450.0,0.027576
13452.0,0.01409
13454.0,0.001613
13456.0,-0.005456
13458.0,-0.026249
13460.0,-0.007645
13462.0,0.002659
13464.0,-0.042969
13466.0,0.016451
13468.0,-0.00151
13470.0,-0.01847
13472.0,0.006136
13474.0,0.020144
13476.0,-0.006678
13478.0,0.008064
13480.0,0.009952
13482.0,-0.006656
13484.0,-0.01142
13486.0,0.014217
13488.0,0.023499
13490.0,-0.002558
13492.0,-0.015464
13494.0,0.021951
13496.0,-0.011727
13498.0,-0.008014
13500.0,0.003353
13502.0,0.015873
13504.0,-0.003621
13506.0,-0.031205
13508.0,-0.012138
13510.0,0.013746
13512.0,0.014057
13514.0,0.016295
13516.0,-0.007837
13518.0,-0.005628
13520.0,0.015592
13522.0,-0.013569
13524.0,0.026647
13526.0,-0.027665
13528.0,0.031536
13530.0,-0.02392
13532.0,0.001447
13534.0,-0.007518
13536.0,-0.025509
13538.0,0.020818
13540.0,0.008191
13542.0,0.009716
13544.0,0.031495
13546.0,0.025018
13548.0,0.014297
13550.0,0.00972
13552.0,0.015727
13554.0,0.006636
13556.0,-0.0106
13558.0,0.014849
13560.0,-0.030752
13562.0,-0.024041
13564.0,0.000917
13566.0,-0.002301
13568.0,0.012478
13570.0,-0.013229
13572.0,0.001367
13574.0,-0.007263
13576.0,0.037258
13578.0,-0.013987
13580.0,0.013156
13582.0,-0.000781
13584.0,0.027227
13586.0,-0.001396
13588.0,-0.013167
13590.0,-0.018235
13592.0,-0.02719
13594.0,-0.044658
13596.0,0.01335
13598.0,-0.038566
13600.0,-0.025583
13602.0,-0.00504
13604.0,-0.026793
13606.0,-0.003457
13608.0,-0.008674
13610.0,-0.043641
13612.0,0.014269
13614.0,-0.000831
13616.0,-0.003242
13618.0,-0.041652
13620.0,-0.000276
13622.0,-0.003807
13624.0,0.019679
13626.0,0.014441
13628.0,0.033923
13630.0,-0.022139
13632.0,0.027998
13634.0,0.027696
13636.0,-0.010707
13638.0,-0.001031
13640.0,-0.005
13642.0,0.001245
13644.0,0.00767
13646.0,0.016945
13648.0,0.003448
13650.0,-0.024618
13652.0,0.01904
13654.0,-0.000151
13656.0,0.016038
13658.0,0.025988
13660.0,-0.019147
13662.0,-0.018375
13664.0,0.012608
13666.0,0.011495
13668.0,0.025468
13670.0,-0.003865
13672.0,0.036994
13674.0,0.031388
13676.0,-0.005838
13678.0,0.074704
13680.0,0.025705
13682.0,0.043466
13684.0,0.054976
13686.0,0.034395
13688.0,0.020673
13690.0,0.045117
13692.0,0.030956
13694.0,0.045456
13696.0,0.064974
13698.0,0.051407
13700.0,0.082741
13702.0,0.086176
13704.0,0.092984
13706.0,0.114829
13708.0,0.12564
13710.0,0.107128
13712.0,0.107792
13714.0,0.130458
13716.0,0.144301
13718.0,0.101597
13720.0,0.158242
13722.0,0.154104
13724.0,0.172945
13726.0,0.21611
13728.0,0.232529
13730.0,0.168542
13732.0,0.222951
13734.0,0.240128
13736.0,0.214507
13738.0,0.251892
13740.0,0.284524
13742.0,0.280194
13744.0,0.309128
13746.0,0.279886
13748.0,0.328405
13750.0,0.323127
13752.0,0.385938
13754.0,0.339678
13756.0,0.378321
13758.0,0.38844
13760.0,0.398038
13762.0,0.478716
13764.0,0.482454
13766.0,0.482565
13768.0,0.491918
13770.0,0.514824
13772.0,0.526962
13774.0,0.57533
13776.0,0.593257
13778.0,0.624339
13780.0,0.629928
13782.0,0.647994
13784.0,0.632892
13786.0,0.705399
13788.0,0.714631
13790.0,0.739501
13792.0,0.780929
13794.0,0.752197
13796.0,0.73091
13798.0,0.796163
13800.0,0.839128
13802.0,0.84212
13804.0,0.86099
13806.0,0.856406
13808.0,0.890481
13810.0,0.892294
13812.0,0.949454
13814.0,0.926762
13816.0,0.893693
13818.0,0.917121
13820.0,0.944777
13822.0,0.966584
13824.0,1.001671
13826.0,1.000993
13828.0,0.971647
13830.0,0.994071
13832.0,1.002706
13834.0,0.959892
13836.0,1.052184
13838.0,0.985413
13840.0,1.020137
13842.0,1.01096
13844.0,0.954443
13846.0,1.023048
13848.0,1.01584
13850.0,0.982458
13852.0,1.016337
13854.0,0.977306
13856.0,0.97417
13858.0,0.973045
13860.0,0.899066
13862.0,0.947097
13864.0,0.917437
13866.0,0.904866
13868.0,0.85297
13870.0,0.893793
13872.0,0.862882
13874.0,0.823137
13876.0,0.820239
13878.0,0.830262
13880.0,0.800981
13882.0,0.753948
13884.0,0.739985
13886.0,0.777726
13888.0,0.678721
13890.0,0.690606
13892.0,0.685572
13894.0,0.674451
13896.0,0.607691
13898.0,0.632829
13900.0,0.595139
13902.0,0.567693
13904.0,0.587749
13906.0,0.56283
13908.0,0.524227
13910.0,0.499983
13912.0,0.44769
13914.0,0.432706
13916.0,0.416788
13918.0,0.441677
13920.0,0.360949
13922.0,0.37924
13924.0,0.32433
13926.0,0.325513
13928.0,0.28922
13930.0,0.29005
13932.0,0.320668
13934.0,0.287333
13936.0,0.279127
13938.0,0.247436
13940.0,0.227398
13942.0,0.226841
13944.0,0.227781
13946.0,0.17259
13948.0,0.201856
13950.0,0.175814
13952.0,0.193161
13954.0,0.158902
13956.0,0.144486
13958.0,0.134107
13960.0,0.105899
13962.0,0.12893
13964.0,0.089496
13966.0,0.113881
13968.0,0.11087
13970.0,0.091344
13972.0,0.106889
13974.0,0.074448
13976.0,0.067972
13978.0,0.033148
13980.0,0.051665
13982.0,0.057619
13984.0,0.089648
13986.0,0.012003
13988.0,0.049288
13990.0,0.020078
13992.0,0.032041
13994.0,0.055026
13996.0,-0.004404
13998.0,0.028911
14000.0,-0.039345
14002.0,-0.024706
14004.0,-0.016746
14006.0,-0.053175
14008.0,-0.051825
14010.0,-0.058346
14012.0,0.008448
14014.0,-0.039201
14016.0,-0.045075
14018.0,-0.035454
14020.0,-0.075706
14022.0,-0.030906
14024.0,-0.032764
14026.0,-0.023833
14028.0,-0.020649
14030.0,-0.013619
14032.0,-0.004436
14034.0,-0.004686
14036.0,0.008784
14038.0,-0.007311
14040.0,0.024231
14042.0,0.017546
14044.0,0.036431
14046.0,0.018802
14048.0,0.068584
14050.0,0.076016
14052.0,0.053369
14054.0,0.041604
14056.0,0.09964
14058.0,0.09509
14060.0,0.098178
14062.0,0.106589
14064.0,0.101943
14066.0,0.093939
14068.0,0.130144
14070.0,0.078784
14072.0,0.151236
14074.0,0.116859
14076.0,0.11938
14078.0,0.09677
14080.0,0.126817
14082.0,0.117382
14084.0,0.134301
14086.0,0.166541
14088.0,0.16261
14090.0,0.139882
14092.0,0.137953
14094.0,0.130692
14096.0,0.173494
14098.0,0.122765
14100.0,0.146915
14102.0,0.100028
14104.0,0.115376
14106.0,0.158472
14108.0,0.142228
14110.0,0.149139
14112.0,0.147179
14114.0,0.177512
14116.0,0.119788
14118.0,0.200196
14120.0,0.133267
14122.0,0.152412
14124.0,0.147978
14126.0,0.180246
14128.0,0.122171
14130.0,0.129318
14132.0,0.11193
14134.0,0.136939
14136.0,0.13208
14138.0,0.08519
14140.0,0.066511
14142.0,0.096354
14144.0,0.115636
14146.0,0.07899
14148.0,0.064522
14150.0,0.085208
14152.0,0.073247
14154.0,0.099485
14156.0,0.081287
14158.0,0.072754
14160.0,0.05588
14162.0,0.052704
14164.0,0.070382
14166.0,0.07395
14168.0,0.078318
14170.0,0.06063
14172.0,0.069385
14174.0,0.009493
14176.0,0.048478
14178.0,0.034454
14180.0,0.023345
14182.0,0.066836
14184.0,0.037073
14186.0,0.015024
14188.0,0.053151
14190.0,0.021003
14192.0,0.003553
14194.0,0.031551
14196.0,0.0283
14198.0,-0.001621
14200.0,0.040833
14202.0,0.050235
14204.0,0.034062
14206.0,-0.000997
14208.0,0.038536
14210.0,0.035577
14212.0,0.012445
14214.0,0.031773
14216.0,-0.007043
14218.0,0.002905
14220.0,0.007411
14222.0,0.000818
14224.0,-0.011269
14226.0,-0.034274
14228.0,0.024678
14230.0,-0.029845
14232.0,0.003275
14234.0,0.023752
14236.0,-0.007952
14238.0,0.018831
14240.0,0.044412
14242.0,0.017138
14244.0,0.027351
14246.0,0.02081
14248.0,0.023474
14250.0,-0.001192
14252.0,0.018766
14254.0,-0.002611
14256.0,-0.034872
14258.0,0.037167
14260.0,0.011892
14262.0,0.006496
14264.0,-0.004803
14266.0,0.006926
14268.0,-0.055941
14270.0,-0.021193
14272.0,0.015847
14274.0,-0.013865
14276.0,-0.012109
14278.0,-0.0054
14280.0,-0.026375
14282.0,-0.026269
14284.0,0.014638
14286.0,0.031495
14288.0,0.003352
14290.0,-0.000232
14292.0,-0.012641
14294.0,-0.001435
14296.0,0.039766
14298.0,-0.001479
14300.0,0.016062
14302.0,-0.012676
14304.0,0.025243
14306.0,0.003202
14308.0,0.006302
14310.0,0.001238
14312.0,-0.019143
14314.0,-0.022928
14316.0,0.014005
14318.0,0.016376
14320.0,0.006786
14322.0,-0.016918
14324.0,0.007472
14326.0,0.026267
14328.0,0.01385
14330.0,-0.026386
14332.0,-0.000437
14334.0,-0.003042
14336.0,0.009944
14338.0,0.010333
14340.0,-0.020377
14342.0,-0.010338
14344.0,-0.024927
14346.0,-0.014221
14348.0,0.011831
14350.0,-0.011499
14352.0,-0.001274
14354.0,-0.013725
14356.0,-0.002943
14358.0,-0.030508
14360.0,0.008419
14362.0,-0.005984
14364.0,0.011046
14366.0,0.000843
14368.0,-0.018278
14370.0,0.022193
14372.0,0.024069
14374.0,0.007632
14376.0,0.006593
14378.0,0.006859
14380.0,-0.008933
14382.0,-0.009476
14384.0,0.016648
14386.0,-0.00638
14388.0,-0.002236
14390.0,-0.021036
14392.0,0.051199
14394.0,0.015922
14396.0,-0.008188
14398.0,0.04301
14400.0,-0.011143
14402.0,0.014378
14404.0,-0.030675
14406.0,0.008009
14408.0,0.02437
14410.0,-0.034773
14412.0,-0.004372
14414.0,-0.040794
14416.0,-0.002454
14418.0,-0.024358
14420.0,-0.002264
14422.0,-0.008843
14424.0,0.014358
14426.0,-0.033058
14428.0,0.011738
14430.0,-0.016078
14432.0,0.014835
14434.0,-0.01654
14436.0,0.021845
14438.0,0.017192
14440.0,0.025189
14442.0,-0.010637
14444.0,0.018012
14446.0,-0.029242
14448.0,0.003894
14450.0,0.013921
14452.0,0.007923
14454.0,0.02262
14456.0,-0.019796
14458.0,0.01249
14460.0,-0.009177
14462.0,-0.031955
14464.0,0.000609
14466.0,-0.026956
14468.0,-0.001002
14470.0,-0.031428
14472.0,-0.021684
14474.0,0.003734
14476.0,0.00945
14478.0,-0.026142
14480.0,0.003762
14482.0,-0.025871
14484.0,0.007966
14486.0,0.00339
14488.0,0.005996
14490.0,-0.014876
14492.0,0.011172
14494.0,0.002679
14496.0,-0.01989
14498.0,0.003777
14500.0,-0.003527
14502.0,0.026544
14504.0,-0.012697
14506.0,0.011926
14508.0,0.026061
14510.0,0.006121
14512.0,-0.003037
14514.0,-0.007798
14516.0,-0.018034
14518.0,0.027773
14520.0,0.061155
14522.0,0.025034
14524.0,0.015636
14526.0,0.025054
14528.0,-0.005551
14530.0,0.00926
14532.0,0.043053
14534.0,0.033808
14536.0,0.049179
14538.0,0.017664
14540.0,0.068208
14542.0,0.036581
14544.0,0.05323
14546.0,0.041429
14548.0,0.078419
14550.0,0.065261
14552.0,0.063737
14554.0,0.054125
14556.0,0.062197
14558.0,0.080202
14560.0,0.134413
14562.0,0.07886
14564.0,0.129336
14566.0,0.085499
14568.0,0.169823
14570.0,0.113704
14572.0,0.157861
14574.0,0.135117
14576.0,0.15246
14578.0,0.168404
14580.0,0.163472
14582.0,0.171111
14584.0,0.190322
14586.0,0.224767
14588.0,0.210264
14590.0,0.264299
14592.0,0.255445
14594.0,0.231628
14596.0,0.321641
14598.0,0.3104
14600.0,0.319959
14602.0,0.293957
14604.0,0.331612
14606.0,0.336458
14608.0,0.363801
14610.0,0.406404
14612.0,0.433092
14614.0,0.471385
14616.0,0.460668
14618.0,0.478378
14620.0,0.497403
14622.0,0.535725
14624.0,0.567907
14626.0,0.537317
14628.0,0.55579
14630.0,0.572215
14632.0,0.623101
14634.0,0.674211
14636.0,0.669547
14638.0,0.697366
14640.0,0.690367
14642.0,0.729472
14644.0,0.73199
14646.0,0.767306
14648.0,0.77325
14650.0,0.801003
14652.0,0.841827
14654.0,0.811983
14656.0,0.856054
14658.0,0.861275
14660.0,0.854781
14662.0,0.913694
