53209232,25511
53210571,25512
53211910,25513
53213249,25516
53214588,25508
53215927,25519
53217266,25509
53218605,25507
53219944,25512
53221283,25505
53222622,25510
53224339,25511
53225680,25511
53227020,25511
53228361,25521
53229702,25506
53231042,25511
53232380,25515
53233720,25510
53235059,25511
53236398,25502
53237738,25501
53239076,25506
53240416,25508
53241755,25510
53243094,25494
53244433,25506
53245771,25515
53247111,25500
53248450,25510
53249789,25513
53251128,25507
53252467,25511
53253806,25508
53255145,25502
53256484,25507
53257823,25507
53259161,25501
53260500,25503
53261840,25507
53263179,25521
53264517,25500
53265857,25511
53267196,25509
53268535,25510
53269874,25507
53271214,25501
53272553,25509
53273892,25517
53275231,25510
53276570,25498
53277909,25506
53279248,25502
53280588,25513
53281927,25505
53283266,25507
53284605,25507
53285944,25505
53287283,25510
53288622,25495
53289961,25500
53291300,25511
53292639,25503
53293979,25502
53295318,25504
53296658,25498
53297997,25507
53299336,25514
53300676,25503
53302016,25514
53303355,25503
53304694,25507
53306033,25511
53307372,25503
53308711,25505
53310050,25505
53311389,25507
53312729,25506
53314067,25495
53315407,25509
53316746,25497
53318085,25500
53319424,25504
53320763,25502
53322103,25504
53324707,25503
53326047,25502
53327386,25500
53328726,25500
53330065,25505
53331404,25504
53332742,25511
53334082,25489
53335421,25498
53336760,25499
53338099,25499
53339438,25504
53340777,25490
53342116,25510
53343455,25496
53344794,25501
53346133,25502
53347472,25498
53348811,25492
53350150,25507
53351488,25499
53352828,25500
53354166,25507
53355506,25507
53356845,25488
53358184,25513
53359523,25502
53360862,25505
53362201,25502
53363540,25497
53364879,25505
53366218,25498
53367557,25493
53368896,25516
53370235,25502
53371574,25500
53372913,25504
53374252,25504
53375591,25511
53376930,25501
53378272,25492
53379612,25508
53381334,25493
53382674,25499
53384015,25506
53385357,25502
53386700,25505
53388040,25506
53389379,25496
53390718,25499
53392058,25502
53393397,25504
53394736,25512
53396075,25496
53397414,25497
53398753,25508
53400092,25500
53401430,25508
53402770,25506
53404109,25505
53405448,25512
53406787,25514
53408126,25508
53409465,25502
53410804,25502
53412143,25513
53413482,25500
53414820,25510
53416159,25502
53417499,25499
53418838,25504
53420177,25499
53421516,25507
53422855,25509
53424194,25494
53425533,25507
53426871,25497
53428211,25505
53429550,25503
53430889,25497
53432228,25491
53433567,25505
53434906,25502
53436244,25504
53437583,25502
53438923,25493
53440262,25505
53441600,25495
53442940,25497
53444279,25506
53445618,25483
53446957,25500
53448296,25507
53449635,25498
53450973,25506
53452313,25497
53453652,25509
53454991,25508
53456330,25497
53457671,25504
53460276,25503
53461616,25503
53462955,25505
53464295,25506
53465634,25506
53466973,25509
53468312,25492
53469651,25504
53470990,25504
53472328,25498
53473668,25505
53475006,25501
53476346,25506
53477684,25500
53479024,25503
53480363,25510
53481702,25509
53483041,25506
53484380,25496
53485719,25494
53487058,25504
53488397,25508
53489736,25500
53491075,25492
53492414,25510
53493753,25508
53495092,25503
53496431,25503
53497770,25498
53499109,25502
53500448,25510
53501787,25497
53503126,25503
53504465,25500
53505804,25511
53507143,25500
53508481,25503
53509821,25518
53511160,25499
53512498,25502
53513838,25506
53515177,25503
53516516,25502
53517855,25509
53519194,25499
53520532,25500
53521872,25499
53523212,25499
53524551,25504
53525889,25498
53527229,25506
53528568,25502
53529907,25501
53531246,25516
53532585,25497
53533924,25500
53535264,25501
53536981,25500
53538322,25503
53539661,25506
53541003,25503
53542344,25495
53543685,25495
53545025,25507
53546364,25509
53547703,25493
53549042,25503
53550382,25507
53551721,25499
53553059,25520
53554399,25499
53555738,25503
53557077,25509
53558416,25501
53559755,25506
53561094,25506
53562433,25501
53563772,25507
53565111,25511
53566450,25499
53567789,25507
53569128,25508
53570467,25508
53571805,25509
53573144,25515
53574484,25493
53575822,25501
53577161,25511
53578501,25501
53579840,25503
53581179,25504
53582518,25498
53583857,25510
53585196,25501
53586535,25495
53587874,25506
53589213,25505
53590552,25512
53591891,25510
53593230,25516
53595834,25511
53597174,25502
53598513,25510
53599852,25513
53601191,25504
53602530,25502
53603869,25512
53605208,25503
53606548,25505
53607887,25505
53609227,25506
53610566,25509
53611906,25509
53613244,25504
53614584,25510
53615923,25509
53617263,25516
53618602,25512
53619941,25515
53621280,25504
53622619,25511
53623958,25504
53625297,25503
53626635,25501
53627975,25512
53629313,25507
53630652,25507
53631992,25515
53633332,25510
53634673,25500
53636012,25520
53637351,25511
53638690,25511
53640029,25514
53641368,25511
53642706,25509
53644046,25505
53645385,25502
53646724,25515
53648063,25500
53649401,25521
53650740,25509
53652080,25502
53653418,25515
53654758,25507
53656097,25504
53657436,25516
53658777,25513
53660116,25511
53661455,25512
53662794,25515
53664133,25516
53665472,25503
53668470,25510
53669810,25522
53671149,25520
53672488,25512
53673827,25512
53675166,25514
53676505,25516
53677843,25510
53679183,25513
53680522,25508
53681860,25505
53683199,25521
53684538,25512
53685877,25523
53687217,25507
53688556,25509
53689895,25515
53691234,25513
53692953,25514
53694294,25519
53695635,25521
53696976,25519
53698317,25509
53699657,25515
53700996,25517
53702335,25509
53703674,25517
53705014,25514
53706353,25519
53707693,25516
53709033,25516
53710372,25521
53711711,25521
53713049,25510
53714389,25521
53715728,25519
53717067,25514
53718406,25516
53719745,25517
53721084,25513
53722423,25519
53723762,25518
53725101,25527
53726441,25516
53727780,25513
53729119,25522
53730458,25521
53733063,25524
53734403,25526
53735742,25521
53737081,25529
53738420,25526
53739759,25518
53741098,25521
53742436,25525
53743776,25519
53745115,25530
53746454,25531
53747792,25514
53749132,25523
53750471,25521
53751810,25529
53753149,25527
53754489,25517
53755828,25526
53757167,25519
53758505,25528
53759844,25528
53761184,25521
53762525,25528
53763863,25529
53765204,25527
53766542,25532
53767882,25528
53769221,25519
53770562,25520
53771901,25518
53773241,25529
53774579,25533
53775919,25517
53777258,25525
53778597,25522
53779936,25525
53781275,25531
53782614,25525
53783953,25528
53785292,25519
53786630,25521
53787970,25535
53789310,25522
53790649,25526
53791987,25524
53793326,25520
53794666,25528
53796005,25538
53797344,25516
53798683,25530
53800022,25530
53801361,25530
53802700,25532
53804038,25518
53805377,25526
53806717,25531
53808056,25526
53809395,25528
53810734,25524
53812072,25524
53813411,25534
53814751,25524
53816089,25529
53817428,25526
53818767,25522
53820107,25533
53821446,25527
53822784,25531
53824124,25530
53825463,25517
53826802,25525
53828140,25534
53829480,25527
53830820,25520
53832160,25531
53833500,25521
53834838,25539
53836177,25526
53837517,25522
53838856,25531
53840195,25525
53841533,25530
53842873,25525
53844212,25530
53845551,25529
53846890,25528
53848229,25523
53849939,25522
53851279,25537
53852622,25541
53853962,25530
53855304,25526
53856643,25532
53857982,25530
53859321,25529
53860660,25531
53862000,25534
53863339,25526
53864678,25527
53866018,25532
53868622,25528
53869963,25529
53871302,25531
53872641,25537
53873980,25535
53875319,25524
53876658,25529
53877997,25538
53879337,25536
53880676,25530
53882015,25532
53883354,25536
53884694,25529
53886033,25538
53887372,25529
53888712,25526
53890053,25541
53891392,25531
53892731,25536
53894070,25525
53895409,25537
53896748,25539
53898086,25534
53899426,25535
53900764,25533
53902104,25534
53903444,25535
53904783,25534
53906122,25527
53907461,25542
53908800,25531
53910138,25523
53911478,25539
53912817,25534
53914155,25537
53915495,25536
53916834,25534
53918173,25546
53919512,25528
53920851,25549
53922191,25541
53923530,25536
53924870,25541
53926209,25538
53927550,25538
53928889,25532
53930228,25543
53931567,25531
53932906,25531
53934246,25534
53935585,25547
53936924,25545
53938263,25529
53939602,25546
53940941,25532
53942280,25547
53943620,25547
53944959,25532
53946298,25541
53947637,25532
53948976,25535
53950315,25547
53951654,25535
53952993,25539
53954332,25537
53955670,25530
53957010,25547
53958349,25539
53959688,25540
53961027,25534
53962366,25536
53963706,25540
53965045,25540
53966383,25538
53967723,25544
53969062,25543
53970401,25546
53971739,25548
53973078,25543
53974417,25548
53975756,25544
53977095,25539
53978434,25548
53979773,25536
53981112,25545
53982451,25544
53983791,25540
53985131,25542
53986470,25538
53987809,25542
53989148,25542
53990488,25540
53991826,25538
53993165,25541
53994505,25538
53995844,25548
53997183,25538
53998522,25536
53999861,25544
54001200,25529
54003804,25553
54005144,25548
54006863,25543
54008205,25553
54009546,25542
54010888,25550
54012230,25542
54013570,25540
54014909,25547
54016248,25552
54017587,25531
54018928,25539
54020268,25541
54021607,25547
54022945,25550
54024285,25547
54025624,25544
54026964,25551
54028302,25546
54029642,25554
54030981,25542
54032320,25553
54033659,25549
54034998,25547
54036337,25556
54037677,25553
54039016,25541
54040356,25552
54041696,25552
54043035,25556
54044374,25551
54045713,25548
54047053,25556
54048393,25559
54049732,25548
54051072,25561
54052411,25547
54053750,25547
54055090,25559
54056429,25545
54057767,25547
54059107,25550
54060446,25545
54061785,25554
54063124,25550
54064464,25557
54065803,25547
54067142,25545
54068481,25546
54069820,25553
54071159,25548
54072499,25544
54073838,25562
54075176,25547
54076515,25558
54077856,25554
54079196,25550
54080535,25562
54081874,25556
54083215,25556
54084553,25556
54085893,25542
54087232,25552
54088571,25548
54089910,25557
54091249,25552
54092588,25556
54093927,25553
54095266,25550
54096605,25546
54097943,25561
54099283,25555
54100622,25542
54101960,25554
54103300,25549
54104640,25553
54105979,25562
54107318,25552
54108658,25557
54109997,25559
54111335,25550
54112675,25563
54114014,25550
54115353,25555
54116692,25564
54118031,25549
54119370,25554
54120709,25564
54122048,25546
54123387,25562
54124725,25560
54126065,25551
54127404,25567
54128743,25557
54130082,25553
54131420,25566
54132760,25565
54134099,25569
54135438,25558
54136777,25555
54139381,25566
54140721,25556
54142060,25561
54143399,25553
54144739,25555
54146078,25565
54147418,25559
54148757,25555
54150096,25550
54151435,25553
54152774,25556
54154113,25562
54155452,25563
54156790,25556
54158130,25561
54159469,25560
54160807,25567
54162147,25553
54163867,25555
54165207,25564
54166549,25562
54167888,25558
54169230,25563
54170568,25561
54171908,25567
54173247,25554
54174587,25563
54175927,25570
54177265,25552
54178605,25562
54179943,25565
54181283,25558
54182622,25556
54183961,25565
54185301,25556
54186640,25559
54187980,25565
54189319,25552
54190658,25565
54191997,25560
54193336,25553
54194675,25576
54196014,25566
54197353,25554
54198692,25567
54200030,25560
54201369,25555
54202708,25556
54204048,25570
54205387,25570
54206726,25561
54208064,25570
54209404,25564
54210743,25564
54212082,25564
54213421,25564
54214759,25572
54216099,25565
54217438,25565
54218777,25561
54220116,25567
54221455,25567
54222794,25565
54224133,25569
54225472,25563
54226811,25572
54228150,25564
54229488,25568
54230828,25569
54232167,25570
54233506,25576
54234845,25564
54236185,25568
54237524,25568
54238863,25568
54240203,25575
54241543,25567
54242881,25575
54244221,25566
54245560,25571
54246899,25576
54248239,25563
54249578,25580
54250918,25568
54252257,25581
54253596,25565
54254935,25572
54256273,25569
54257613,25571
54258952,25570
54260290,25577
54261630,25573
54262969,25565
54264307,25566
54265647,25569
54266985,25576
54268325,25581
54269664,25563
54271003,25573
54272342,25569
54274948,25575
54276288,25572
54277627,25569
54278966,25574
54280305,25571
54281644,25571
54282983,25567
54284322,25582
54285660,25565
54287000,25573
54288339,25571
54289678,25570
54291017,25583
54292356,25571
54293695,25576
54295034,25576
54296373,25562
54297712,25582
54299051,25572
54300390,25572
54301729,25572
54303068,25566
54304407,25577
54305746,25566
54307085,25570
54308424,25563
54309763,25564
54311102,25572
54312440,25574
54313780,25567
54315119,25561
54316458,25567
54317797,25561
54319516,25565
54320857,25543
54322197,25541
54323539,25554
54324881,25546
54326221,25553
54327559,25550
54328899,25538
54330238,25539
54331577,25546
54332918,25537
54334257,25549
54335596,25535
54336935,25540
54338274,25545
54339613,25536
54340952,25551
54342291,25529
54343632,25541
54344971,25538
54346310,25538
54347648,25550
54348987,25543
54350327,25538
54351665,25543
54353004,25540
54354344,25544
54355683,25545
54357022,25539
54358362,25528
54359701,25547
54361040,25548
54362379,25539
54363719,25539
54365058,25534
54366397,25540
54367736,25538
54369075,25553
54370414,25535
54371753,25536
54373092,25545
54374431,25532
54375770,25538
54377109,25540
54378448,25538
54379787,25539
54381126,25543
54382466,25536
54383805,25545
54385144,25538
54386482,25524
54387822,25547
54389161,25538
54390501,25535
54391841,25535
54393180,25537
54394519,25550
54395859,25545
54397198,25544
54398536,25542
54399876,25535
54401215,25545
54402557,25537
54403895,25544
54405235,25537
54406574,25530
54407913,25540
54410518,25548
54411858,25528
54413197,25546
54414536,25534
54415874,25536
54417213,25539
54418553,25542
54419892,25538
54421231,25535
54422570,25541
54423909,25528
54425248,25540
54426586,25539
54427925,25545
54429265,25541
54430604,25534
54431943,25552
54433282,25542
54434621,25542
54435960,25547
54437300,25533
54438639,25540
54439977,25546
54441317,25545
54442656,25537
54443995,25533
54445333,25532
54446673,25551
54448012,25539
54449350,25544
54450690,25540
54452029,25543
54453368,25555
54454707,25540
54456046,25546
54457385,25542
54458724,25536
54460063,25549
54461401,25539
54462741,25530
54464079,25547
54465419,25539
54466758,25544
54468097,25550
54469436,25537
54470775,25541
54472113,25534
54473453,25539
54474793,25542
54476503,25537
54477844,25533
54479186,25536
54480526,25542
54481866,25537
54483206,25544
54484545,25545
54485884,25539
54487223,25546
54488563,25536
54489902,25535
54491241,25544
54492580,25535
54493919,25535
54495258,25545
54496596,25535
54497936,25542
54499275,25534
54500613,25532
54501953,25549
54503292,25537
54504631,25539
54505970,25543
54507309,25532
54508648,25536
54509987,25533
54511326,25538
54512665,25545
54514003,25541
54515343,25536
54516682,25547
54518021,25544
54519360,25538
54520699,25534
54522037,25542
54523377,25536
54524716,25535
54526054,25544
54527394,25532
54528733,25532
54530072,25540
54531412,25536
54532751,25547
54534090,25541
54535429,25552
54536768,25544
54538107,25537
54539446,25536
54540785,25545
54542123,25533
54543463,25542
54546068,25546
54547407,25531
54548746,25542
54550086,25542
54551425,25548
54552765,25548
54554105,25540
54555444,25544
54556781,25529
54558121,25539
54559460,25540
54560799,25539
54562137,25540
54563477,25538
54564816,25536
54566155,25544
54567493,25536
54568832,25545
54570172,25544
54571511,25547
54572850,25540
54574188,25543
54575528,25537
54576866,25538
54578206,25536
54579544,25530
54580885,25538
54582224,25534
54583563,25543
54584901,25545
54586241,25539
54587580,25547
54588920,25540
54590259,25540
54591598,25540
54592937,25533
54594276,25539
54595615,25542
54596954,25538
54598293,25542
54599632,25542
54600971,25539
54602309,25547
54603648,25532
54604988,25550
54606327,25544
54607667,25537
54609007,25540
54610347,25537
54611685,25540
54613024,25539
54614364,25536
54615703,25538
54617042,25534
54618380,25554
54619720,25546
54621059,25536
54622397,25539
54623737,25531
54625076,25544
54626414,25537
54627754,25545
54629093,25537
54630432,25535
54632150,25529
54633490,25546
54634830,25540
54636171,25533
54637511,25548
54638851,25537
54640190,25544
54641529,25537
54642868,25537
54644207,25537
54645547,25532
54646886,25544
54648225,25541
54649564,25544
54650903,25544
54652242,25533
54653581,25535
54654920,25546
54656259,25535
54657598,25548
54658938,25531
54660278,25543
54661617,25538
54662955,25535
54664295,25534
54665634,25534
54666973,25546
54668311,25536
54669651,25537
54670990,25548
54672330,25540
54673669,25543
54675008,25529
54676347,25537
54677686,25538
54679025,25541
54681628,25543
54682968,25548
54684307,25535
54685645,25533
54686984,25538
54688324,25541
54689663,25542
54691002,25531
54692341,25538
54693679,25539
54695019,25539
54696357,25547
54697697,25545
54699035,25535
54700375,25547
54701714,25527
54703052,25539
54704393,25548
54705733,25542
54707071,25539
54708411,25541
54709751,25535
54711091,25548
54712430,25536
54713769,25538
54715108,25537
54716447,25539
54717785,25535
54719125,25539
54720464,25546
54721803,25543
54723143,25546
54724482,25533
54725820,25539
54727160,25538
54728500,25540
54729838,25547
54731177,25535
54732517,25533
54733856,25548
54735195,25542
54736533,25539
54737873,25540
54739212,25546
54740551,25546
54741889,25538
54743229,25535
54744568,25543
54745907,25546
54747246,25553
54748584,25544
54749924,25535
54751263,25545
54752601,25546
54753941,25542
54755280,25553
54756619,25535
54757958,25547
54759297,25541
54760636,25540
54761976,25552
54763315,25542
54764654,25540
54765993,25540
54767332,25545
54768671,25550
54770010,25547
54771350,25542
54772689,25549
54774028,25546
54775367,25546
54776706,25543
54778045,25542
54779384,25553
54780723,25543
54782063,25548
54783402,25552
54784741,25537
54786080,25546
54787420,25544
54789142,25550
54790482,25537
54791825,25544
54793165,25539
54794507,25546
54795846,25540
54797184,25549
54798523,25546
54799862,25540
54801202,25552
54802541,25547
54803880,25555
54805219,25545
54806559,25540
54807898,25550
54809236,25545
54810576,25547
54811914,25541
54813254,25547
54814593,25555
54817198,25540
54818538,25552
54819877,25553
54821216,25544
54822555,25554
54823894,25549
54825233,25549
54826572,25545
54827911,25544
54829250,25545
54830589,25542
54831928,25548
54833267,25538
54834606,25537
54835945,25548
54837284,25547
54838623,25548
54839961,25549
54841300,25546
54842640,25550
54843979,25548
54845318,25546
54846658,25542
54847998,25541
54849337,25543
54850675,25537
54852015,25547
54853354,25549
54854693,25545
54856031,25541
54857371,25546
54858710,25558
54860049,25543
54861389,25553
54862727,25546
54864066,25544
54865406,25542
54866747,25546
54868086,25552
54869425,25544
54870764,25544
54872103,25548
54873442,25545
54874781,25542
54876120,25562
54877459,25545
54878797,25544
54880137,25553
54881475,25550
54882814,25551
54884154,25544
54885493,25536
54886831,25542
54888170,25543
54889510,25549
54890849,25551
54892188,25543
54893527,25557
54894867,25548
54896206,25562
54897545,25544
54898884,25553
54900223,25549
54901561,25540
54902900,25552
54904240,25557
54905579,25541
54906918,25552
54908257,25550
54909596,25544
54910934,25562
54912274,25547
54913613,25548
54914952,25556
54916291,25546
54917630,25555
54918969,25547
54920308,25545
54921647,25544
54922986,25545
54924325,25543
54925664,25550
54927003,25556
54928342,25554
54929681,25536
54931020,25551
54932359,25557
54933698,25556
54935037,25559
54936376,25547
54937715,25550
54939054,25557
54940392,25549
54941732,25562
54943070,25545
54944791,25539
54946132,25552
54947474,25545
54948816,25541
54950157,25558
54952763,25549
54954102,25550
54955442,25557
54956780,25555
54958121,25559
54959461,25552
54960800,25556
54962138,25550
54963478,25551
54964817,25559
54966156,25547
54967495,25556
54968834,25554
54970173,25553
54971512,25560
54972853,25551
54974192,25551
54975531,25552
54976870,25553
54978209,25545
54979548,25550
54980887,25565
54982226,25546
54983565,25555
54984903,25557
54986242,25545
54987581,25555
54988921,25549
54990260,25554
54991599,25555
54992938,25560
54995934,25571
54997274,25548
54998613,25554
54999952,25557
55001291,25551
55002630,25567
55003969,25549
55005308,25550
55006647,25562
55007987,25545
55009325,25555
55010665,25554
55012004,25549
55013343,25554
55014682,25555
55016021,25564
55017361,25566
55018700,25560
55020039,25545
55021379,25548
55022720,25551
55024059,25560
55025398,25557
55026737,25556
55028076,25563
55029414,25546
55030755,25564
55032094,25559
55033433,25555
55034772,25558
55036111,25553
55037450,25566
55038789,25560
55040128,25562
55041468,25551
55042808,25554
55044147,25559
55045486,25557
55046825,25560
55048164,25566
55049504,25554
55050843,25558
55052182,25558
55053520,25557
55054860,25559
55056199,25554
55057538,25550
55058877,25566
55060216,25555
55061555,25562
55062894,25557
55064232,25562
55065572,25569
55066911,25538
55068249,25564
55069589,25568
55070928,25564
55072267,25563
55073606,25557
55074945,25561
55076284,25560
55077622,25566
55078962,25558
55080302,25566
55081641,25560
55082981,25559
55084321,25564
55085660,25560
55086999,25565
55089605,25552
55090945,25565
55092284,25557
55093623,25558
55094962,25568
55096301,25558
55097640,25557
55098979,25568
55100318,25562
55102038,25571
55103378,25566
55104721,25558
55106061,25566
55107402,25552
55108741,25569
55110080,25559
55111419,25561
55112758,25568
55114098,25552
55115437,25565
55116776,25566
55118115,25557
55119454,25570
55120793,25562
55122132,25556
55123471,25563
55124810,25564
55126148,25559
55127488,25561
55128826,25563
55130167,25564
55131506,25566
55132845,25558
55134184,25563
55135523,25565
55136862,25567
55138201,25563
55139540,25563
55140879,25565
55142218,25561
55143557,25574
55144896,25559
55146235,25566
55147574,25565
55148913,25559
55150252,25570
55151592,25564
55152931,25562
55154270,25564
55155609,25556
55156948,25568
55158288,25567
55159627,25565
55160966,25561
55162305,25558
55163644,25569
55164983,25579
55166322,25570
55167661,25565
55168999,25564
55170340,25559
55171680,25574
55173020,25564
55174359,25566
55175698,25555
55177037,25566
55178377,25575
55179715,25570
55181055,25570
55182394,25573
55183733,25569
55185072,25568
55186410,25572
55187750,25574
55189089,25573
55190429,25567
55191768,25563
55193107,25572
55194446,25576
55195785,25580
55197124,25562
55198462,25563
55199802,25571
55201140,25567
55202480,25565
55203818,25564
55205157,25566
55206497,25569
55207835,25568
55209174,25569
55210514,25577
55211853,25566
55213192,25579
55214531,25567
55215870,25565
55217209,25575
55218548,25567
55219887,25570
55221226,25565
55222566,25565
55225170,25580
55226510,25568
55227849,25582
55229188,25571
55230527,25572
55231866,25577
55233205,25570
55234545,25571
55235884,25575
55237223,25565
55238562,25578
55239902,25567
55241241,25573
55242580,25580
55243919,25574
55245259,25574
55246598,25570
55247936,25583
55249274,25572
55250614,25570
55251953,25567
55253292,25576
55254631,25570
55255970,25571
55257688,25577
55259030,25569
55260371,25578
55261713,25571
55263054,25567
55264394,25584
55265733,25570
55267072,25580
55268411,25577
55269750,25579
55271090,25573
55272429,25571
55273768,25569
55275107,25579
55276446,25570
55277784,25579
55279124,25570
55280462,25583
55281802,25573
55283141,25580
55284479,25579
55285819,25567
55287158,25577
55288497,25575
55289836,25577
55291176,25575
55292515,25566
55293854,25579
55295192,25580
55296531,25584
55297871,25567
55299210,25582
55300549,25576
55301888,25578
55303227,25575
55304566,25573
55305905,25576
55307245,25567
55308584,25575
55309923,25575
55311262,25577
55312601,25582
55313940,25578
55315279,25578
55316618,25576
55317957,25579
55319296,25578
55320635,25574
55321974,25578
55323312,25583
55324652,25576
55325991,25580
55327330,25591
55328670,25574
55330010,25585
55331349,25582
55332688,25573
55334028,25569
55335367,25574
55336707,25586
55338045,25570
55339384,25584
55340724,25578
55342063,25569
55343402,25577
55344741,25575
55346080,25577
55347420,25586
55348759,25572
55350098,25579
55351436,25570
55352776,25578
55354115,25571
55355453,25583
55356793,25560
55358132,25573
55360737,25567
55362077,25569
55363416,25581
55364755,25564
55366094,25573
55367433,25572
55368773,25576
55370112,25572
55371451,25568
55372790,25569
55374130,25561
55375469,25565
55376808,25575
55378148,25566
55379487,25566
55380826,25570
55382165,25556
55383505,25562
55384844,25572
55386183,25558
55387522,25559
55388861,25570
55390200,25560
55391539,25566
55392879,25560
55394218,25557
55395558,25561
55396898,25551
55398237,25571
55399575,25547
55400915,25547
55402254,25555
55403593,25554
55404932,25559
55406271,25560
55407611,25543
55408950,25545
55410289,25550
55411629,25555
55412968,25564
55414689,25541
55416030,25549
55417374,25552
55418713,25541
55420053,25556
55421393,25544
55422732,25548
55424071,25547
55425410,25538
55426750,25559
55428090,25550
55429428,25547
55430768,25547
55432106,25547
55433445,25554
55434784,25552
55436122,25548
55437461,25547
55438801,25545
55440140,25544
55441479,25545
55442818,25549
55444157,25551
55445496,25544
55446835,25552
55448174,25540
55449512,25544
55450851,25546
55452190,25540
55453530,25536
55454868,25543
55456207,25541
55457546,25553
55458885,25540
55460225,25543
55461564,25543
55462903,25534
55464241,25552
55465581,25545
55466920,25548
55468260,25544
55469599,25542
55470938,25550
55472277,25541
55473615,25550
55474955,25538
55476294,25541
55477633,25543
55478972,25541
55480311,25544
55481650,25553
55482988,25539
55484328,25537
55485668,25552
55487007,25538
55488346,25548
55489685,25549
55491026,25540
55492364,25540
55493704,25542
55496308,25551
55497647,25544
55498987,25548
55500325,25552
55501665,25553
55503005,25550
55504343,25541
55505682,25543
55507022,25553
55508361,25540
55509700,25548
55511040,25550
55512379,25549
55513718,25541
55515056,25545
55516396,25544
55517735,25548
55519074,25539
55520413,25535
55521752,25548
55523091,25544
55524430,25558
55525769,25543
55527108,25552
55528446,25534
55529786,25552
55531125,25543
55532464,25553
55533803,25547
55535142,25540
55536481,25555
55537820,25540
55539159,25543
55540498,25547
55541837,25543
55543176,25549
55544516,25540
55545854,25545
55547194,25549
55548534,25536
55549872,25545
55551212,25553
55552551,25546
55553889,25552
55555229,25552
55556568,25549
55557907,25542
55559246,25551
55560585,25563
55561924,25548
55563263,25535
55564602,25541
55565941,25537
55567280,25542
55568619,25537
55570337,25555
55571678,25541
55573018,25553
55574360,25544
55575702,25544
55577042,25554
55578381,25542
55579720,25547
55581059,25535
55582399,25553
55583739,25532
55585078,25549
55586417,25552
55587756,25545
55589095,25548
55590433,25539
55591772,25536
55593111,25545
55594450,25538
55595789,25556
55597128,25540
55598467,25539
55599806,25546
55601145,25539
55602484,25539
55603823,25547
55605162,25539
55606502,25534
55607841,25538
55609179,25552
55610519,25544
55611858,25537
55613198,25542
55614537,25534
55615876,25552
55617215,25544
55618554,25545
55619892,25545
55621232,25540
55622571,25536
55623910,25550
55625249,25541
55626588,25546
55627927,25539
55629266,25540
55631868,25552
55633208,25531
55634547,25547
55635886,25541
55637224,25543
55638564,25542
55639904,25543
55641243,25540
55642582,25552
55643922,25536
55645261,25556
55646600,25544
55647939,25542
55649279,25551
55650618,25529
55651957,25553
55653296,25546
55654635,25543
55655973,25565
55657313,25543
55658653,25544
55659992,25549
55661744,25539
55663084,25540
55664424,25546
55665764,25538
55667103,25534
55668441,25542
55669781,25543
55671119,25545
55672458,25529
55673797,25538
55675135,25536
55676475,25540
55677813,25544
55679153,25529
55680492,25537
55681831,25540
55683170,25542
55684510,25544
55685848,25545
55687188,25532
55688527,25533
55689866,25535
55691205,25540
55692544,25538
55693883,25542
55695222,25540
55696561,25525
55697900,25540
55699240,25545
55700579,25533
55701918,25533
55703257,25533
55704597,25539
55705937,25530
55707276,25531
55708615,25542
55709954,25533
55711294,25543
55712633,25542
55713972,25537
55715311,25537
55716650,25540
55717989,25543
55719328,25534
55720667,25530
55722007,25542
55723347,25533
55724686,25532
55726406,25537
55727746,25533
55729086,25528
55730427,25540
55731769,25538
55733109,25533
55734448,25538
55735787,25541
55737126,25533
55738465,25546
55739805,25545
55741144,25539
55742483,25530
55743821,25538
55745161,25533
55746501,25538
55747839,25540
55749179,25536
55750517,25536
55751857,25535
55753196,25544
55754535,25543
55755874,25542
55757213,25542
55758553,25538
55759892,25544
55761231,25535
55762569,25546
55763909,25540
55765248,25535
55767853,25536
55769194,25550
55770533,25545
55771872,25534
55773211,25533
55774550,25540
55775889,25543
55777228,25532
55778566,25544
55779906,25550
55781245,25526
55782584,25540
55783922,25536
55785262,25535
55786601,25530
55787939,25536
55789279,25536
55790618,25541
55791956,25532
55793296,25545
55794635,25551
55795974,25542
55797312,25539
55798652,25532
55799992,25533
55801331,25556
55802669,25539
55804010,25546
55805348,25550
55806688,25532
55808027,25549
55809366,25538
55810707,25530
55812047,25548
55813385,25535
55814725,25534
55816064,25538
55817402,25542
55818742,25546
55820081,25535
55821419,25546
55822759,25558
55824098,25535
55825437,25539
55826776,25538
55828116,25547
55829455,25552
55830794,25534
55832133,25540
55833471,25539
55834811,25537
55836149,25555
55837490,25535
55838829,25541
55840168,25548
55841507,25535
55842845,25533
55844185,25540
55845524,25539
55846863,25537
55848202,25542
55849541,25545
55850880,25546
55852219,25530
55853558,25542
55854897,25545
55856236,25532
55857575,25548
55858914,25541
55860253,25536
55861591,25548
55862931,25544
55864270,25554
55865609,25539
55866948,25531
55868287,25548
55869625,25543
55870965,25547
55872304,25540
55873643,25538
55874982,25546
55876321,25548
55877660,25528
55878999,25546
55880338,25528
55881677,25537
55883397,25538
55884737,25536
55886079,25551
55887419,25542
55888760,25540
55890099,25548
55891438,25542
55892777,25546
55894116,25533
55895456,25537
55896795,25535
55898134,25550
55899472,25550
55900811,25538
55903417,25545
55904757,25545
55906096,25537
55907435,25548
55908774,25536
55910113,25545
55911451,25550
55912791,25530
55914130,25544
55915469,25539
55916809,25541
55918149,25545
55919488,25536
55920827,25543
55922166,25545
55923506,25532
55924845,25541
55926184,25546
55927522,25543
55928862,25542
55930200,25551
55931540,25545
55932878,25538
55934218,25540
55935557,25541
55936896,25545
55938236,25549
55939575,25545
55940915,25545
55942254,25542
55943594,25553
55944933,25524
55946272,25548
55947610,25547
55948949,25551
55950289,25546
55951628,25536
55952967,25555
55954306,25542
55955646,25540
55956985,25540
55958324,25539
55959664,25541
55961004,25548
55962342,25546
55963681,25537
55965021,25546
55966360,25549
55967699,25556
55969037,25550
55970377,25545
55971716,25549
55973055,25540
55974394,25545
55975733,25544
55977072,25545
55978411,25541
55979750,25541
55981089,25535
55982428,25551
55983767,25542
55985105,25551
55986444,25550
55987784,25537
55989123,25541
55990461,25549
55991801,25547
55993141,25550
55994480,25546
55995819,25543
55997158,25540
55998498,25546
55999837,25559
56001177,25542
56002515,25547
56003855,25539
56005194,25547
56006532,25537
56007872,25545
56009211,25538
56010551,25540
56011889,25532
56013229,25542
56014568,25548
56015908,25538
56017248,25549
56018586,25537
56019925,25545
56021265,25550
56022604,25540
56023943,25549
56025282,25546
56026621,25537
56027959,25543
56029299,25537
56030637,25543
56031977,25544
56033317,25539
56034656,25547
56035995,25544
56038599,25543
56040318,25549
56041659,25541
56043001,25549
56044343,25552
56045684,25530
56047024,25542
56048362,25547
56049702,25545
56051042,25553
56052382,25551
56053722,25541
56055061,25552
56056399,25544
56057739,25550
56059078,25541
56060416,25545
56061756,25546
56063094,25544
56064434,25550
56065773,25546
56067112,25532
56068451,25557
56069790,25543
56071129,25537
56072469,25554
56073809,25548
56075147,25545
56076487,25553
56077827,25547
56079166,25545
56080505,25543
56081844,25547
56083183,25552
56084522,25554
56085861,25549
56087200,25541
56088539,25543
56089878,25553
56091217,25554
56092556,25549
56093895,25556
56095234,25542
56096572,25545
56097913,25554
56099252,25552
56100591,25549
56101930,25552
56103269,25550
56104608,25549
56105946,25547
56107286,25557
56108625,25545
56109964,25541
56111302,25556
56112643,25541
56113982,25537
56115321,25549
56116660,25551
56117999,25552
56119339,25550
56120678,25549
56122017,25556
56123356,25546
56124695,25551
56126034,25552
56127373,25550
56128712,25557
56130050,25549
56131390,25542
56132729,25555
56134068,25551
56135406,25560
56136746,25540
56138085,25556
56139423,25551
56140763,25552
56142102,25552
56143441,25551
56144780,25549
56146119,25546
56147458,25552
56148797,25561
56150136,25557
56151475,25542
56152814,25551
56154154,25545
56155493,25555
56156832,25558
56158171,25542
56159510,25546
56160849,25548
56162188,25544
56163527,25560
56164866,25557
56166205,25550
56167544,25554
56168883,25545
56170221,25550
56171561,25554
56174166,25552
56175506,25557
56176845,25547
56178184,25557
56179522,25558
56180862,25556
56182201,25543
56183539,25550
56184879,25547
56186218,25559
56187557,25547
56188895,25545
56190236,25548
56191575,25549
56192914,25559
56194254,25550
56195593,25549
56197312,25562
56198652,25550
56199994,25555
56201334,25552
56202676,25553
56204015,25561
56205354,25553
56206693,25547
56208032,25557
56209372,25547
56210711,25558
56212050,25558
56213388,25553
56214727,25547
56216066,25562
56217404,25552
56218744,25562
56220083,25552
56221422,25549
56222761,25560
56224101,25549
56225439,25555
56226779,25552
56228118,25553
56229458,25560
56230798,25558
56232138,25559
56233477,25555
56234817,25554
56236156,25560
56237495,25546
56238834,25556
56240173,25559
56241511,25551
56242850,25554
56244190,25548
56245528,25561
56246868,25561
56248207,25551
56249547,25551
56250886,25550
56252225,25551
56253564,25549
56254903,25560
56256242,25551
56257581,25555
56258920,25546
56260259,25560
56261597,25551
56262937,25551
56264276,25551
56265615,25544
56266954,25557
56268293,25553
56269632,25550
56270972,25545
56272312,25538
56273652,25545
56274991,25543
56276329,25542
56277669,25546
56279008,25531
56280347,25541
56281686,25535
56283025,25549
56284364,25536
56285703,25536
56287042,25536
56288381,25538
56289719,25539
56291059,25542
56292398,25539
56293737,25533
56295076,25525
56296415,25531
56297754,25529
56299094,25534
56300433,25531
56301772,25541
56303110,25529
56304450,25535
56305789,25532
56307128,25521
56309732,25529
56311073,25528
56312412,25527
56313751,25522
56315090,25529
56316428,25515
56317768,25516
56319107,25529
56320445,25522
56321785,25525
56323124,25515
56324464,25525
56325804,25511
56327143,25526
56328482,25521
56329821,25512
56332404,25514
56333744,25511
56335083,25509
56336422,25515
56337760,25520
56339099,25508
56340439,25512
56341778,25505
56343117,25511
56344456,25519
56345795,25503
56347134,25506
56348472,25507
56349812,25510
56351151,25517
56352871,25507
56354211,25511
56355552,25502
56356893,25507
56358234,25516
56359575,25507
56360914,25510
56362253,25506
56363593,25514
56364933,25509
56366273,25507
56367612,25509
56368951,25511
56370289,25499
56371629,25514
56372968,25501
56374307,25513
56375646,25509
56376985,25504
56378324,25514
56379663,25516
56381002,25515
56382341,25516
56383680,25502
56385019,25505
56386358,25510
56387696,25509
56389035,25507
56390375,25509
56391714,25505
56393054,25514
56394392,25504
56395732,25499
56397070,25513
56398409,25503
56399749,25515
56401088,25502
56402426,25507
56403765,25513
56405104,25507
56406442,25514
56407781,25502
56409121,25515
56410461,25506
56411800,25498
56413139,25505
56414478,25508
56415816,25506
56417156,25505
56418495,25503
56419833,25508
56421173,25511
56422512,25506
56423851,25505
56425191,25506
56426530,25493
56427869,25505
56429210,25498
56430549,25509
56431888,25497
56433227,25494
56434566,25499
56435905,25490
56437244,25505
56438583,25500
56439922,25496
56441261,25496
56442599,25510
56443939,25505
56446543,25498
56447883,25503
56449223,25495
56450565,25504
56451905,25495
56453244,25485
56454582,25501
56455922,25494
56457261,25496
56458600,25499
56459939,25498
56461278,25505
56462616,25493
56463955,25499
56465295,25501
56466634,25499
56467973,25503
56469313,25509
56470652,25488
56471991,25498
56473330,25495
56474669,25505
56476008,25505
56477347,25494
56478686,25494
56480025,25502
56481364,25505
56482704,25507
56484043,25499
56485382,25497
56486721,25508
56488059,25500
56489399,25498
56490737,25498
56492077,25493
56493415,25497
56494754,25502
56496094,25500
56497432,25504
56498771,25491
56500111,25496
56501450,25500
56502789,25493
56504128,25515
56505467,25491
56506806,25498
56508526,25505
56509868,25490
56511208,25506
56512550,25502
56513890,25501
56515232,25497
56516571,25501
56517910,25505
56519249,25497
56520588,25504
56521927,25496
56523266,25494
56524605,25506
56525944,25491
56527283,25503
56528623,25510
56529962,25499
56531301,25503
56532640,25496
56533979,25497
56535318,25503
56536658,25500
56537997,25502
56539336,25493
56540675,25493
56542014,25501
56543353,25501
56544692,25500
56546031,25497
56547369,25482
56548709,25495
56550047,25501
56551387,25504
56552726,25495
56554065,25493
56555403,25496
56556743,25500
56558082,25499
56559421,25500
56560760,25485
56562098,25490
56563438,25495
56564777,25489
56566116,25494
56567455,25485
56568794,25482
56570134,25493
56571473,25483
56572812,25491
56574152,25503
56575491,25488
56576830,25487
56578170,25496
56579509,25494
56582114,25499
56583454,25491
56584794,25481
56586134,25489
56587474,25494
56588813,25492
56590152,25483
56591491,25491
56592830,25492
56594169,25493
56595509,25504
56596848,25488
56598186,25483
56599526,25486
56600865,25487
56602204,25491
56603543,25481
56604882,25493
56606221,25481
56607560,25487
56608899,25486
56610238,25486
56611577,25496
56612916,25484
56614255,25484
56615594,25494
56616933,25485
56618272,25496
56619611,25491
56620950,25495
56622289,25487
56623629,25494
56624968,25499
56626307,25486
56627646,25475
56628986,25487
56630326,25484
56631665,25489
56633004,25491
56634343,25485
56635682,25490
56637021,25485
56638359,25491
56639699,25495
56641037,25479
56642376,25493
56643716,25491
56645055,25488
56646394,25491
56647733,25491
56649072,25493
56650411,25492
56651750,25492
56653089,25486
56654428,25482
56655766,25485
56657106,25499
56658445,25492
56659785,25481
56661124,25484
56662463,25477
56663802,25486
56665523,25493
56666864,25498
56668207,25504
56669550,25481
56670891,25485
56672230,25492
56673569,25491
56674908,25495
56676247,25482
56677587,25483
56678926,25486
56680265,25484
56681605,25491
56682944,25483
56684282,25476
56685621,25491
56686960,25495
56688300,25494
56689639,25490
56690978,25494
56692316,25496
56693655,25490
56694994,25480
56696334,25490
56697673,25498
56699012,25494
56700350,25488
56701690,25492
56703029,25492
56704368,25487
56705707,25495
56707046,25484
56708385,25494
56709724,25495
56711063,25487
56712402,25490
56713741,25495
56715080,25495
56717684,25486
56719024,25487
56720363,25481
56721702,25500
56723041,25482
56724380,25485
56725719,25497
56727058,25489
56728397,25505
56729736,25495
56731075,25495
56732414,25489
56733753,25481
56735093,25497
56736432,25486
56737772,25487
56739111,25497
56740450,25486
56741789,25486
56743129,25490
56744468,25495
56745807,25490
56747147,25487
56748485,25483
56749825,25480
56751164,25493
56752503,25490
56753842,25491
56755181,25490
56756519,25490
56757859,25491
56759198,25491
56760537,25486
56761876,25490
56763215,25483
56764554,25495
56765893,25479
56767232,25485
56768571,25491
56769910,25482
56771248,25490
56772587,25492
56773927,25487
56775266,25491
56776604,25497
56777943,25489
56779282,25498
56780621,25489
56781960,25488
56783299,25492
56784637,25489
56785977,25496
56787316,25490
56788654,25490
56789994,25493
56791334,25483
56792674,25490
56794013,25485
56795352,25488
56796692,25503
56798031,25487
56799370,25499
56800709,25501
56802048,25493
56803387,25490
56804727,25493
56806066,25486
56807405,25501
56808744,25493
56810083,25494
56811422,25488
56812761,25489
56814100,25499
56815438,25488
56816778,25487
56818117,25492
56819456,25487
56821173,25492
56822515,25489
56823855,25481
56825197,25489
56826538,25485
56827880,25492
56829219,25488
56830558,25481
56831897,25485
56833236,25488
56834576,25487
56835914,25501
56837254,25493
56838593,25489
56839932,25496
56841272,25488
56842611,25495
56843950,25493
56845289,25493
56846628,25492
56847966,25484
56849306,25502
56850645,25490
56853251,25480
56854592,25493
56855931,25487
56857270,25493
56858609,25492
56859947,25491
56861287,25499
56862627,25488
56863966,25497
56865305,25489
56866643,25489
56867983,25496
56869322,25487
56870661,25488
56872000,25484
56873339,25492
56874678,25488
56876017,25491
56877356,25485
56878694,25502
56880033,25491
56881373,25485
56882712,25498
56884051,25494
56885390,25493
56886729,25491
56888068,25490
56889407,25493
56890746,25492
56892085,25494
56893425,25492
56894765,25493
56896103,25480
56897443,25500
56898782,25495
56900121,25490
56901460,25494
56902800,25499
56904139,25495
56905478,25487
56906817,25494
56908156,25493
56909495,25489
56910834,25486
56912173,25500
56913512,25496
56914851,25490
56916190,25492
56917529,25485
56918868,25491
56920208,25488
56921547,25497
56922886,25484
56924225,25485
56925564,25500
56926902,25490
56928242,25493
56929581,25490
56930921,25502
56932260,25497
56933599,25491
56934938,25494
56936277,25505
56937616,25507
56938955,25497
56940294,25495
56941633,25493
56942972,25498
56944311,25496
56945650,25495
56946988,25501
56948328,25492
56949667,25501
56951006,25498
56952345,25489
56953684,25507
56955022,25494
56956361,25493
56957701,25498
56959040,25495
56960379,25499
56961718,25487
56963057,25500
56964396,25504
56965735,25490
56967073,25495
56968413,25503
56969752,25492
56971091,25503
56972430,25499
56973770,25496
56975108,25500
56976448,25506
56978168,25499
56979508,25496
56980847,25500
56982189,25502
56983530,25499
56984869,25501
56986208,25499
56988812,25500
56990152,25501
56991492,25502
56993245,25492
56994585,25492
56995924,25500
56997262,25496
56998602,25499
56999941,25502
57001280,25493
57002619,25502
57003958,25505
57005296,25502
57006636,25514
57007975,25502
57009314,25504
57010653,25505
57011992,25501
57013331,25509
57014670,25494
57016008,25504
57017348,25503
57018687,25501
57020026,25506
57021365,25500
57022704,25502
57024043,25498
57025382,25492
57026721,25505
57028061,25511
57029400,25501
57030739,25501
57032079,25495
57033418,25503
57034757,25508
57036096,25512
57037435,25492
57038774,25502
57040114,25496
57041452,25514
57042791,25505
57044130,25509
57045470,25504
57046809,25498
57048148,25505
57049489,25506
57050829,25507
57052168,25505
57053506,25500
57054847,25504
57056187,25501
57057526,25503
57058865,25502
57060204,25513
57061543,25506
57062883,25511
57064222,25505
57065561,25502
57066900,25510
57068238,25502
57069578,25507
57070917,25509
57072256,25506
57073595,25514
57074933,25502
57076272,25504
57077612,25519
57078951,25506
57080290,25507
57081629,25502
57082968,25500
57084307,25512
57085646,25511
57086985,25509
57088325,25514
57089664,25497
57091003,25511
57092342,25504
57093681,25507
57095020,25507
57096359,25498
57097699,25511
57099038,25512
57100377,25513
57101716,25516
57103055,25509
57104393,25512
57105733,25509
57107072,25515
57108410,25509
57109750,25510
57111090,25506
57112429,25516
57113768,25509
57115107,25505
57116446,25505
57117785,25501
57119125,25512
57120463,25513
57121803,25506
57124406,25520
57125746,25509
57127085,25507
57128425,25504
57129764,25512
57131103,25520
57132443,25505
57133782,25498
57135501,25503
57136842,25510
57138183,25512
57139523,25501
57140864,25522
57142203,25509
57143542,25515
57144882,25513
57146221,25510
57147561,25499
57148899,25517
57150239,25508
57151578,25511
57152916,25513
57154256,25503
57155595,25504
57156934,25516
57158273,25506
57159612,25512
57160950,25510
57162290,25506
57163629,25510
57164968,25507
57166307,25507
57167646,25513
57168985,25509
57170324,25502
57171663,25502
57173002,25512
57174341,25511
57175679,25507
57177019,25504
57178358,25502
57179697,25504
57181035,25500
57182375,25489
57183713,25499
57185053,25501
57186391,25495
57187731,25488
57189070,25501
57190409,25496
57191748,25494
57193088,25490
57194426,25494
57195766,25499
57197105,25490
57198444,25487
57199783,25479
57201122,25506
57202461,25488
57203799,25483
57205139,25490
57206479,25486
57207818,25479
57209157,25485
57210495,25478
57211835,25477
57213174,25488
57214514,25479
57215852,25473
57217192,25485
57218532,25470
57219871,25482
57221210,25476
57222548,25473
57223887,25473
57225226,25468
57226565,25476
57227904,25467
57229244,25495
57230583,25470
57231922,25464
57233261,25466
57234601,25464
57235939,25458
57237278,25473
57238618,25474
57239957,25464
57241296,25470
57242636,25469
57243976,25463
57245315,25464
57246654,25453
57247993,25470
57249332,25465
57250671,25451
57252010,25463
57253349,25455
57254688,25468
57256027,25462
57257366,25458
57259972,25451
57261312,25457
57262651,25458
57263990,25463
57265329,25454
57266670,25458
57268009,25457
57269349,25446
57270687,25465
57272027,25466
57273366,25455
57274705,25455
57276043,25454
57277383,25446
57278722,25450
57280060,25464
57281400,25451
57282739,25455
57284078,25434
57285417,25449
57286756,25455
57288095,25447
57289434,25449
57291151,25448
57292491,25450
57293830,25448
57295172,25462
57296513,25452
57297852,25443
57299190,25439
57300530,25463
57301869,25456
57303208,25447
57304548,25454
57305887,25444
57307226,25450
57308565,25453
57309904,25441
57311243,25451
57312582,25455
57313921,25449
57315260,25445
57316598,25444
57317938,25437
57319277,25445
57320616,25450
57321955,25445
57323294,25443
57324634,25455
57325972,25436
57327312,25444
57328651,25445
57329990,25442
57331329,25442
57332668,25433
57334007,25439
57335346,25443
57336685,25434
57338024,25438
57339363,25434
57340701,25445
57342041,25440
57343380,25444
57344719,25437
57346060,25437
57347400,25436
57348740,25444
57350079,25441
57351419,25438
57352757,25435
57354097,25436
57355436,25436
57356774,25447
57358114,25428
57359453,25434
57360792,25432
57362132,25438
57363471,25447
57364811,25434
57366149,25441
57367490,25432
57368829,25439
57370169,25438
57371509,25434
57372848,25426
57374187,25435
57375525,25440
57376865,25431
57378204,25440
57379543,25435
57380881,25439
57382221,25435
57383560,25435
57384899,25437
57386238,25432
57387577,25432
57388916,25432
57390255,25438
57391594,25435
57392932,25425
57395537,25429
57396877,25434
57398216,25426
57399555,25427
57400894,25432
57402232,25418
57403572,25434
57404910,25428
57406250,25432
57407589,25435
57408929,25433
57410268,25435
57411607,25430
57412945,25429
57414285,25435
57415623,25421
57416963,25431
57418304,25430
57419643,25428
57420982,25424
57422322,25423
57423661,25413
57425001,25431
57426339,25428
57427679,25423
57429018,25431
57430357,25421
57431697,25417
57433036,25423
57434375,25425
57435713,25423
57437053,25423
57438392,25417
57439730,25424
57441070,25419
57442408,25431
57443748,25420
57445087,25413
57446426,25419
57448146,25412
57449485,25420
57450827,25424
57452169,25419
57453510,25416
57454850,25421
57456189,25422
57457528,25424
57458866,25414
57460206,25411
57461545,25425
57462884,25414
57464224,25415
57465563,25419
57466903,25425
57468243,25421
57469582,25426
57470921,25410
57472260,25426
57473599,25419
57474938,25412
57476277,25420
57477616,25425
57478956,25425
57480295,25416
57481634,25421
57482973,25420
57484311,25424
57485651,25421
57486990,25422
57488330,25410
57489669,25427
57491008,25422
57492347,25417
57493686,25415
57495025,25417
57496364,25421
57497703,25415
57499042,25422
57500381,25419
57501720,25401
57503059,25415
57504398,25416
57505737,25410
57507076,25424
57508416,25418
57509755,25420
57511094,25414
57512433,25415
57513772,25410
57515111,25425
57516450,25405
57517789,25423
57519129,25415
57520467,25414
57521806,25415
57523146,25415
57524485,25419
57525825,25410
57527164,25424
57528503,25412
57531107,25409
57532447,25419
57533786,25414
57535125,25416
57536463,25415
57537803,25408
57539142,25408
57540481,25414
57541820,25423
57543159,25412
57544499,25417
57545838,25403
57547177,25416
57548516,25405
57549855,25396
57551193,25426
57552533,25415
57553872,25417
57555211,25413
57556550,25415
57557889,25424
57559228,25407
57560567,25413
57561906,25403
57563245,25413
57564584,25416
57565923,25414
57567262,25403
57568601,25411
57569940,25418
57571279,25416
57572617,25408
57573957,25417
57575296,25403
57576635,25409
57577974,25417
57579314,25401
57580652,25409
57581992,25405
57583331,25405
57584670,25418
57586009,25412
57587348,25419
57588687,25413
57590026,25410
57591364,25414
57592704,25412
57594043,25412
57595382,25408
57596721,25408
57598059,25405
57599399,25404
57600739,25405
57602078,25418
57603796,25413
57605138,25418
57606478,25413
57607820,25402
57609160,25403
57610502,25395
57611841,25409
57613181,25414
57614519,25403
57615859,25408
57617198,25404
57618537,25404
57619877,25407
57621215,25416
57622555,25410
57623893,25405
57625233,25408
57626572,25412
57627911,25406
57629250,25398
57630589,25410
57631928,25397
57633267,25404
57634607,25408
57635946,25403
57637286,25404
57638625,25401
57639964,25412
57641302,25413
57642642,25407
57643981,25403
57645320,25407
57646659,25404
57647998,25406
57649337,25412
57650676,25406
57652015,25408
57653354,25403
57654693,25409
57656031,25409
57657371,25411
57658710,25411
57660049,25402
57661387,25416
57662727,25408
57664065,25416
57667915,25402
57669256,25413
57670595,25413
57671933,25419
57673273,25402
57674612,25407
57675951,25417
57677290,25412
57678629,25408
57679968,25408
57681308,25409
57682647,25418
57683986,25415
57685325,25410
57686664,25403
57688003,25403
57689342,25416
57690681,25406
57692020,25407
57693358,25416
57694698,25414
57696037,25411
57697376,25408
57698715,25405
57700053,25415
57701393,25411
57702731,25403
57704071,25420
57705409,25404
57706749,25422
57708088,25414
57709427,25417
57710766,25422
57712104,25419
57713443,25416
57714782,25416
57716121,25418
57717461,25420
57718800,25411
57720139,25412
57721478,25419
57722817,25410
57724156,25410
57725496,25417
57726835,25411
57728174,25421
57729513,25410
57730852,25408
57732191,25419
57733530,25407
57734869,25413
57736208,25412
57737547,25408
57738886,25423
57740224,25418
57741564,25418
57742903,25422
57744242,25422
57745582,25414
57746920,25408
57748259,25413
57749599,25423
57750937,25415
57752276,25410
57753614,25417
57754954,25416
57756293,25411
57757632,25420
57759351,25410
57760692,25423
57762032,25410
57763374,25408
57764714,25416
57766056,25415
57767394,25409
57768734,25413
57770074,25417
57771413,25413
57772752,25414
57774092,25414
57775431,25415
57776770,25413
57778109,25424
57779448,25415
57780787,25416
57782127,25416
57783466,25405
57784804,25418
57786143,25407
57787483,25412
57788822,25412
57790161,25416
57791500,25417
57792838,25417
57794177,25412
57795517,25405
57796856,25420
57798195,25414
57799534,25424
57800873,25412
57803478,25411
57804818,25419
57806158,25407
57807498,25421
57808837,25410
57810176,25411
57811514,25425
57812853,25417
57814193,25424
57815531,25427
57816871,25413
57818210,25421
57819548,25418
57820888,25411
57822227,25412
57823566,25421
57824906,25421
57826245,25424
57827584,25415
57828923,25415
57830262,25418
57831601,25426
57832941,25420
57834280,25420
57835619,25416
57836959,25425
57838300,25420
57839638,25425
57840978,25420
57842317,25414
57843656,25419
57844995,25419
57846334,25422
57847673,25414
57849012,25411
57850350,25430
57851690,25425
57853029,25419
57854368,25424
57855706,25420
57857046,25418
57858387,25420
57859727,25418
57861065,25428
57862405,25418
57863744,25418
57865083,25428
57866422,25410
57867760,25430
57869101,25420
57870439,25419
57871779,25429
57873118,25415
57874457,25423
57875796,25418
57877135,25418
57878474,25421
57879813,25419
57881152,25409
57882491,25423
57883830,25420
57885169,25418
57886508,25427
57887847,25407
57889186,25424
57890525,25413
57891863,25422
57893203,25417
57894542,25412
57895882,25426
57897220,25423
57898560,25426
57899899,25422
57901238,25420
57902578,25417
57903917,25425
57905256,25419
57906595,25429
57907934,25424
57909273,25416
57910613,25419
57911952,25410
57913291,25426
57914631,25419
57916351,25411
57917691,25423
57919032,25422
57920373,25417
57921715,25420
57923055,25421
57924394,25430
57925733,25426
57927072,25423
57928411,25428
57929750,25417
57931089,25429
57932428,25425
57933766,25427
57935106,25432
57936445,25414
57939049,25417
57940389,25429
57941728,25421
57943067,25427
57944406,25432
57945745,25432
57947084,25425
57948422,25419
57949762,25435
57951101,25426
57952441,25423
57953779,25436
57955119,25429
57956458,25427
57957797,25429
57959136,25427
57960475,25420
57961814,25433
57963153,25434
57964492,25434
57965831,25432
57967170,25418
57968509,25431
57969848,25431
57971188,25424
57972527,25432
57973866,25426
57975205,25441
57976544,25431
57977882,25432
57979222,25439
57980560,25421
57981901,25430
57983240,25425
57984579,25432
57985918,25441
57987257,25430
57988597,25425
57989936,25427
57991274,25426
57992613,25434
57993954,25436
57995293,25420
57996632,25432
57997970,25424
57999310,25437
58000648,25433
58001988,25427
58003328,25433
58004668,25436
58006007,25424
58007346,25437
58008685,25434
58010024,25435
58011364,25441
58012703,25435
58014041,25444
58015381,25438
58016719,25432
58018058,25432
58019397,25436
58020736,25438
58022075,25433
58023414,25423
58024752,25442
58026093,25421
58027432,25436
58028771,25437
58030109,25422
58031449,25436
58032787,25436
58034127,25432
58035466,25432
58036805,25430
58038144,25438
58039483,25429
58040822,25429
58042161,25438
58043500,25437
58044839,25437
58046178,25439
58047517,25437
58048856,25431
58050195,25442
58051534,25435
58052873,25436
58054212,25439
58055550,25434
58056890,25438
58058229,25432
58059568,25439
58060907,25436
58062245,25431
58063585,25434
58064924,25426
58066263,25435
58067602,25445
58068941,25431
58070280,25437
58071997,25447
58074604,25435
58075945,25439
58077287,25440
58078627,25445
58079967,25443
58081306,25434
58082645,25437
58083984,25436
58085323,25442
58086663,25450
58088002,25437
58089342,25441
58090680,25433
58092020,25441
58093359,25447
58094698,25446
58096037,25441
58097376,25450
58098715,25444
58100054,25447
58101393,25449
58102731,25432
58104071,25443
58105410,25433
58106748,25435
58108087,25438
58109427,25430
58110765,25445
58112105,25442
58113444,25439
58114784,25436
58116123,25439
58117462,25442
58118801,25438
58120140,25436
58121479,25434
58122818,25445
58124157,25438
58125496,25434
58126835,25427
58128174,25437
58129513,25428
58130852,25429
58132191,25434
58133530,25435
58134869,25435
58136208,25432
58137547,25424
58138886,25429
58140224,25434
58141564,25421
58142903,25428
58144243,25417
58145583,25422
58146921,25426
58148261,25424
58149602,25424
58150941,25414
58152280,25419
58153619,25425
58154958,25419
58156297,25410
58157636,25419
58158975,25403
58160314,25411
58161652,25411
58162992,25408
58164331,25415
58165670,25402
58167009,25402
58168348,25405
58169687,25409
58171026,25406
58172365,25403
58173703,25405
58175043,25403
58176382,25398
58177721,25403
58179060,25411
58180399,25392
58181738,25394
58183077,25385
58184416,25395
58185754,25402
58187094,25390
58188432,25384
58189772,25400
58191112,25391
58192451,25391
58193790,25386
58195129,25390
58196468,25386
58197807,25383
58199146,25410
58200485,25381
58201824,25392
58203163,25387
58204502,25381
58205842,25394
58207181,25385
58209785,25375
58211125,25390
58212464,25371
58213803,25373
58215142,25380
58216481,25376
58217821,25380
58219160,25372
58220500,25379
58221839,25382
58223177,25366
58224517,25377
58225856,25383
58227196,25367
58228535,25369
58230256,25367
58231596,25371
58232939,25377
58234280,25372
58235622,25370
58236961,25369
58238300,25365
58239639,25376
58240978,25373
58242318,25374
58243657,25371
58244996,25371
58246335,25366
58247674,25370
58249013,25365
58250352,25359
58251691,25362
58253029,25360
58254370,25368
58255709,25367
58257048,25363
58258387,25364
58259726,25354
58261064,25370
58262404,25373
58263742,25364
58265081,25371
58266421,25359
58267760,25358
58269099,25364
58270439,25369
58271778,25370
58273117,25357
58274455,25354
58275795,25371
58277134,25366
58278473,25370
58279813,25346
58281152,25361
58282491,25364
58283830,25360
58285169,25364
58286508,25369
58287846,25349
58289186,25357
58290525,25367
58291863,25375
58293203,25369
58294541,25357
58295881,25358
58297220,25357
58298559,25359
58299898,25368
58301238,25359
58302577,25371
58303916,25369
58305256,25358
58306596,25364
58307935,25355
58309274,25357
58310612,25364
58311952,25362
58313290,25357
58314630,25357
58315969,25349
58317309,25359
58318648,25355
58319986,25356
58321326,25357
58322665,25352
58324004,25353
58325343,25365
58326682,25352
58328021,25353
58329361,25353
58330700,25352
58332039,25359
58333378,25352
58334717,25375
58336056,25355
58337395,25346
58338734,25354
58340073,25342
58341412,25347
58342751,25344
58346184,25338
58347525,25341
58348864,25350
58350203,25339
58351542,25342
58352882,25343
58354221,25345
58355560,25353
58356899,25338
58358238,25332
58359577,25347
58360916,25349
58362255,25347
58363594,25334
58364933,25337
58366272,25342
58367611,25343
58368951,25343
58370292,25338
58371632,25340
58372971,25348
58374310,25347
58375649,25348
58376988,25340
58378328,25343
58379667,25337
58381006,25351
58382346,25340
58383685,25335
58385402,25338
58386744,25333
58388085,25349
58389427,25342
58390767,25345
58392109,25335
58393449,25345
58394789,25350
58396129,25345
58397468,25337
58398808,25340
58400147,25343
58401485,25346
58402825,25340
58404164,25333
58405504,25339
58406843,25337
58408182,25346
58409520,25340
58410860,25343
58412198,25342
58413538,25330
58414877,25335
58416216,25332
58417556,25331
58418896,25351
58420234,25335
58421574,25340
58422913,25336
58424252,25342
58425591,25333
58426929,25345
58428269,25332
58429607,25349
58430946,25336
58432285,25340
58433624,25344
58434963,25336
58436303,25344
58437644,25340
58438984,25345
58440323,25330
58441661,25332
58443001,25340
58444340,25334
58445679,25337
58447018,25335
58448357,25333
58449697,25336
58451036,25340
58452375,25341
58453714,25328
58455053,25337
58456392,25336
58457733,25332
58459072,25339
58460411,25331
58461751,25342
58463091,25320
58464430,25334
58465769,25334
58467108,25333
58468447,25337
58469785,25330
58471125,25329
58472465,25335
58473804,25332
58475142,25330
58476482,25333
58477822,25333
58479161,25331
58481766,25339
58483106,25316
58484445,25335
58485784,25323
58487123,25336
58488462,25332
58489800,25326
58491140,25332
58492479,25335
58493817,25319
58495157,25335
58496496,25335
58497834,25327
58499174,25329
58500514,25334
58501853,25331
58503192,25331
58504531,25337
58505870,25332
58507209,25337
58508548,25338
58509888,25338
58511227,25334
58512566,25330
58513905,25330
58515244,25328
58516583,25332
58517922,25341
58519261,25326
58520600,25334
58521939,25329
58523278,25338
58524617,25340
58525956,25323
58527294,25331
58528633,25331
58529973,25331
58531313,25332
58532651,25329
58533991,25330
58535330,25327
58536669,25334
58538008,25335
58539348,25343
58540688,25331
58542409,25327
58543749,25338
58545090,25332
58546433,25333
58547775,25317
58549115,25335
58550453,25338
58551793,25325
58553131,25333
58554471,25336
58555810,25340
58557149,25331
58558488,25332
58559827,25331
58561165,25326
58562506,25326
58563845,25331
58565184,25325
58566523,25346
58567862,25336
58569201,25321
58570540,25340
58571878,25342
58573217,25331
58574557,25336
58575895,25342
58577235,25336
58578574,25340
58579912,25337
58581252,25344
58582591,25337
58583930,25331
58585269,25334
58586608,25339
58587947,25346
58589286,25332
58590626,25342
58591964,25340
58593304,25342
58594642,25338
58595982,25325
58597321,25340
58598661,25346
58600001,25341
58601341,25332
58602679,25329
58604019,25333
58605357,25352
58606697,25337
58608036,25348
58609375,25348
58610714,25334
58612052,25342
58613392,25342
58614732,25344
58617337,25343
58618678,25333
58620018,25337
58621356,25353
58622696,25339
58624035,25355
58625374,25332
58626715,25333
58628054,25340
58629393,25347
58630732,25339
58632071,25345
58633410,25344
58634749,25341
58636087,25349
58637427,25338
58638766,25336
58640104,25346
58641444,25338
58642783,25339
58644122,25348
58645461,25350
58646800,25342
58648139,25339
58649478,25340
58650816,25343
58652155,25338
58653495,25349
58654834,25344
58656173,25343
58657512,25356
58658851,25340
58660190,25343
58661529,25337
58662868,25340
58664207,25340
58665546,25340
58666885,25357
58668224,25355
58669563,25339
58670902,25339
58672241,25347
58673580,25343
58674920,25356
58676260,25343
58677599,25342
58678938,25346
58680277,25352
58681615,25356
58682955,25354
58684295,25341
58685634,25355
58686972,25345
58688311,25350
58689651,25342
58690990,25352
58692329,25346
58693668,25354
58695007,25353
58696346,25352
58698064,25345
58699406,25348
58700745,25345
58702087,25346
58703427,25353
58704768,25343
58706108,25349
58707447,25348
58708786,25344
58710125,25351
58711465,25351
58712803,25351
58714143,25357
58715482,25358
58716820,25343
58718160,25354
58719499,25348
58720838,25355
58722177,25353
58723516,25350
58724855,25357
58726194,25348
58727534,25351
58728873,25348
58730212,25352
58731550,25355
58732890,25353
58734229,25357
58735569,25360
58736908,25354
58738247,25355
58739586,25346
58740925,25366
58742264,25362
58743602,25358
58744941,25358
58746281,25353
58747620,25352
58748958,25352
58750298,25354
58752902,25352
58754244,25365
58755584,25356
58756924,25360
58758263,25354
58759602,25350
58760941,25357
58762280,25356
58763620,25364
58764960,25348
58766299,25347
58767637,25353
58768977,25355
58770317,25361
58771657,25365
58772995,25354
58774335,25354
58775674,25349
58777014,25358
58778354,25354
58779693,25370
58781032,25349
58782370,25354
58783709,25362
58785049,25353
58786389,25364
58787728,25357
58789067,25358
58790406,25365
58791744,25347
58793084,25361
58794424,25358
58795763,25358
58797102,25363
58798441,25360
58799780,25363
58801119,25364
58802457,25361
58803797,25351
58805136,25361
58806475,25363
58807814,25372
58809153,25367
58810492,25356
58811831,25354
58813170,25364
58814509,25361
58815848,25368
58817186,25359
58818526,25366
58819865,25365
58821205,25373
58822544,25374
58823883,25364
58825222,25376
58826560,25365
58827901,25365
58829241,25367
58830580,25365
58831918,25358
58833257,25367
58834596,25359
58835936,25375
58837275,25375
58838614,25368
58839953,25368
58841293,25368
58842632,25371
58843971,25373
58845310,25362
58846649,25375
58847988,25364
58849328,25370
58850667,25377
58852007,25362
58853345,25372
58855067,25364
58856407,25368
58857747,25381
58859089,25370
58860429,25363
58861770,25376
58863109,25368
58864448,25373
58865787,25376
58867127,25363
58868465,25371
58869805,25372
58871144,25367
58872483,25364
58873822,25371
58875161,25389
58876500,25374
58877839,25375
58879178,25376
58880517,25363
58881856,25378
58883196,25366
58884536,25367
58885875,25375
58888478,25372
58889819,25380
58891158,25373
58892498,25375
58893837,25380
58895176,25373
58896515,25381
58897854,25379
58899193,25372
58900532,25387
58901872,25378
58903211,25377
58904550,25376
58905889,25374
58907229,25381
58908568,25392
58909907,25380
58911246,25375
58912585,25375
58913925,25377
58915264,25386
58916602,25373
58917942,25370
58919282,25376
58920621,25382
58921960,25377
58923299,25384
58924638,25376
58925978,25385
58927317,25376
58928657,25374
58929996,25380
58931334,25389
58932675,25386
58934014,25387
58935353,25378
58936692,25377
58938031,25378
58939370,25378
58940710,25384
58942050,25381
58943389,25382
58944728,25386
58946067,25378
58947407,25384
58948746,25384
58950085,25376
58951423,25383
58952763,25380
58954102,25391
58955441,25393
58956780,25390
58958119,25394
58959458,25393
58960797,25389
58962135,25388
58963475,25387
58964814,25399
58966153,25399
58967492,25385
58968831,25394
58970169,25385
58971509,25386
58972848,25401
58974187,25392
58975526,25384
58976865,25392
58978204,25386
58979543,25391
58980882,25392
58982221,25391
58983560,25388
58984899,25391
58986238,25389
58987577,25390
58988916,25389
58990255,25385
58991594,25379
58992933,25391
58994272,25385
58995612,25381
58996951,25394
58998290,25388
58999629,25388
59000967,25381
59002307,25379
59003647,25391
59004986,25384
59006325,25384
59007664,25378
59009003,25371
59010722,25379
59012063,25375
59013402,25381
59014742,25393
59016083,25377
59017425,25378
59018764,25375
59020103,25374
59021442,25376
59024462,25343
59025803,25351
59027141,25337
59028480,25334
59029820,25333
59031159,25333
59032498,25344
59033837,25346
59035176,25339
59036515,25348
59037854,25332
59039193,25331
59040532,25326
59041871,25330
59043210,25333
59044549,25337
59045889,25332
59047227,25340
59048567,25328
59049906,25328
59051245,25334
59052584,25323
59053923,25323
59055261,25320
59056601,25323
59057940,25331
59059278,25320
59060618,25327
59061957,25316
59063296,25327
59064635,25333
59065974,25321
59067312,25316
59068652,25328
59069991,25316
59071330,25324
59072669,25311
59074008,25315
59075346,25326
59076686,25316
59078024,25315
59079364,25325
59080703,25318
59082042,25323
59083382,25317
59084721,25318
59086060,25322
59087398,25311
59088739,25318
59090077,25319
59091417,25312
59092755,25320
59094095,25308
59095433,25310
59096773,25313
59098111,25314
59099450,25323
59100790,25317
59102129,25316
59103468,25319
59104807,25309
59106146,25311
59107485,25316
59108823,25313
59110163,25320
59111502,25314
59112841,25307
59114180,25319
59115519,25294
59116858,25319
59118197,25309
59119537,25311
59120876,25318
59122215,25301
59123554,25313
59124893,25310
59126232,25314
59127572,25309
59128911,25304
59130250,25314
59131588,25316
59132928,25313
59134268,25319
59135606,25306
59136946,25305
59138286,25313
59139626,25310
59140964,25309
59142303,25318
59143643,25302
59144982,25316
59146321,25308
59147660,25307
59148999,25318
59150338,25303
59151677,25312
59153015,25308
59154354,25311
59155693,25322
59157031,25306
59159635,25307
59160975,25311
59162314,25307
59163653,25313
59164992,25305
59166331,25307
59168050,25304
59169392,25305
59170732,25308
59172074,25309
59173415,25316
59174754,25300
59176094,25305
59177433,25299
59178772,25316
59180110,25297
59181450,25310
59182790,25303
59184129,25306
59185468,25315
59186807,25310
59188147,25303
59189486,25307
59190825,25311
59192164,25307
59193503,25305
59194842,25294
59196181,25311
59197520,25304
59198860,25305
59200199,25314
59201539,25289
59202878,25303
59204217,25307
59205556,25305
59206895,25310
59208235,25301
59209574,25310
59210913,25302
59212251,25307
59213591,25309
59214930,25308
59216269,25300
59217608,25303
59218947,25311
59220286,25309
59221625,25302
59222963,25303
59224303,25311
59225641,25305
59226981,25306
59228320,25310
59229659,25307
59230998,25310
59232337,25303
59233676,25314
59235015,25318
59236354,25303
59237693,25307
59239032,25300
59240372,25311
59241711,25309
59243050,25310
59244390,25306
59245729,25301
59247069,25302
59248408,25312
59249747,25310
59251086,25308
59252426,25313
59253765,25306
59255104,25309
59256443,25314
59257782,25309
59259121,25316
59260461,25311
59261799,25310
59263139,25310
59264477,25302
59265816,25305
59267156,25300
59268495,25309
59269835,25314
59271174,25315
59272513,25310
59273852,25308
59275191,25309
59276530,25311
59277870,25309
59279209,25300
59280548,25312
59281887,25305
59283227,25302
59284566,25312
59285905,25308
59287245,25313
59288583,25309
59289923,25308
59291263,25302
59292602,25302
59295207,25314
59296547,25311
59297886,25303
59299226,25315
59300565,25305
59301904,25299
59303243,25303
59304583,25304
59305922,25305
59307261,25300
59308601,25308
59309940,25314
59311278,25309
59312618,25299
59313958,25306
59315297,25305
59316636,25304
59317975,25318
59319313,25305
59320654,25307
59321993,25312
59323332,25300
59325052,25314
59326391,25310
59327735,25302
59329075,25303
59330416,25309
59331755,25310
59333094,25304
59334433,25308
59335772,25310
59337112,25311
59338450,25299
59339790,25304
59341130,25296
59342469,25308
59343808,25305
59345148,25314
59346487,25291
59347825,25303
59349165,25304
59350504,25297
59351843,25306
59353182,25307
59354521,25305
59355860,25300
59357199,25311
59358538,25307
59359876,25303
59361216,25304
59362555,25307
59363894,25309
59365232,25295
59366572,25304
59367911,25297
59369250,25302
59370589,25302
59371929,25303
59373267,25307
59374606,25299
59375946,25303
59377285,25303
59378624,25299
59379963,25314
59381303,25305
59382642,25302
59383981,25312
59385321,25302
59386659,25314
59387999,25305
59389338,25298
59390677,25307
59392016,25303
59393355,25309
59394698,25308
59396038,25300
59397377,25321
59398716,25307
59400055,25311
59401396,25309
59402735,25303
59404074,25316
59405413,25303
59406752,25319
59408091,25309
59409430,25303
59410769,25302
59412109,25312
59413448,25302
59414787,25316
59416126,25315
59417465,25308
59418804,25313
59420143,25308
59421482,25314
59422821,25315
59424160,25306
59425499,25316
59426837,25307
59428177,25302
59430782,25312
59432122,25310
59433461,25316
59434799,25309
59436139,25320
59437477,25320
59438817,25308
59440156,25314
59441495,25319
59442835,25305
59444174,25309
59445513,25316
59446852,25307
59448190,25320
59449530,25320
59450869,25310
59452209,25317
59453548,25312
59454887,25317
59456226,25326
59457565,25319
59458904,25316
59460244,25317
59461582,25316
59462922,25324
59464261,25317
59465600,25321
59466939,25322
59468278,25316
59469617,25323
59470956,25330
59472295,25320
59473634,25324
59474973,25322
59476312,25316
59477652,25325
59478991,25316
59480709,25316
59482050,25332
59483389,25312
59484731,25318
59486072,25315
59487411,25309
59488749,25330
59490089,25317
59491427,25324
59492766,25318
59494106,25312
59495445,25319
59496783,25319
59498123,25325
59499462,25329
59500801,25318
59502140,25323
59503479,25328
59504818,25327
59506157,25345
59507496,25322
59508836,25320
59510175,25320
59511514,25330
59512853,25330
59514192,25334
59515531,25330
59516870,25329
59518209,25328
59519548,25334
59520887,25334
59522228,25325
59523568,25329
59524907,25330
59526246,25336
59527586,25336
59528925,25331
59530265,25335
59531604,25325
59532943,25333
59534282,25338
59535622,25318
59536961,25334
59538300,25329
59539639,25339
59540978,25338
59542317,25331
59543657,25328
59544996,25324
59546335,25341
59547674,25329
59549014,25329
59550352,25327
59551692,25331
59553032,25329
59554371,25340
59555710,25334
59557049,25337
59558390,25344
59559729,25332
59561068,25332
59562406,25334
59563745,25334
59566350,25345
59567690,25329
59569031,25332
59570370,25338
59571709,25338
59573048,25337
59574387,25335
59575725,25329
59577065,25340
59578404,25335
59579743,25339
59581082,25346
59582421,25335
59583760,25332
59585099,25340
59586439,25338
59587778,25345
59589117,25331
59590457,25336
59591796,25339
59593134,25334
59594474,25348
59595812,25340
59597152,25341
59598490,25345
59599830,25339
59601168,25342
59602508,25343
59603847,25345
59605186,25340
59606525,25345
59607864,25350
59609203,25338
59610542,25349
59611881,25351
59613221,25343
59614559,25346
59615898,25338
59617238,25354
59618578,25352
59619917,25348
59621256,25340
59622594,25347
59623934,25349
59625272,25342
59626611,25349
59627951,25344
59629290,25344
59630629,25338
59631968,25340
59633307,25351
59634646,25343
59635985,25346
59637695,25342
59639036,25358
59640378,25348
59641719,25347
59643061,25351
59644400,25343
59645739,25350
59647078,25344
59648417,25351
59649757,25362
59651096,25343
59652435,25345
59653774,25342
59655113,25346
59656452,25358
59657791,25360
59659130,25341
59660469,25348
59661808,25343
59663147,25359
59664486,25354
59665825,25349
59667164,25359
59668502,25359
59669842,25349
59671181,25355
59672519,25345
59673859,25356
59675198,25359
59676537,25355
59677876,25354
59679215,25346
59680554,25353
59681893,25363
59683232,25357
59684572,25359
59685911,25350
59687250,25360
59688588,25350
59689928,25358
59691267,25355
59692606,25347
59693945,25362
59695283,25359
59696623,25359
59697962,25355
59699301,25354
59703150,25367
59704490,25363
59705829,25366
59707168,25365
59708508,25374
59709848,25375
59711187,25357
59712526,25370
59713867,25366
59715207,25366
59716546,25370
59717884,25364
59719224,25371
59720564,25367
59721903,25368
59723242,25359
59724581,25366
59725919,25364
59727259,25355
59728598,25364
59729936,25375
59731276,25368
59732615,25355
59733953,25365
59735293,25362
59736632,25357
59737971,25355
59739310,25356
59740649,25355
59741988,25358
59743327,25357
59744665,25360
59746005,25367
59747344,25359
59748683,25346
59750022,25347
59751361,25342
59752699,25343
59754039,25346
59755377,25337
59756717,25342
59758056,25353
59759395,25353
59760733,25332
59762072,25344
59763412,25339
59764751,25344
59766090,25337
59767429,25331
59768768,25332
59770107,25328
59771447,25338
59772786,25335
59774125,25368
59775464,25330
59776802,25317
59778142,25328
59779481,25328
59780820,25320
59782158,25324
59783498,25315
59784837,25321
59786176,25330
59787514,25322
59788855,25320
59790194,25310
59791533,25305
59793253,25313
59794593,25310
59795934,25308
59797276,25316
59798618,25307
59799958,25310
59801297,25304
59802636,25309
59803975,25305
59805314,25295
59806654,25298
59807993,25301
59809333,25290
59810673,25295
59812012,25289
59813351,25295
59814690,25290
59816030,25287
59817369,25297
59818708,25293
59820048,25296
59821387,25294
59822726,25284
59824065,25298
59825403,25282
59826743,25290
59828082,25285
59829421,25290
59830761,25287
59832100,25290
59833439,25273
59834777,25290
59836116,25288
59838722,25280
59840062,25285
59841401,25282
59842740,25278
59844079,25283
59845418,25269
59846757,25269
59848096,25282
59849434,25273
59850774,25283
59852113,25275
59853452,25264
59854791,25274
59856130,25270
59857469,25270
59858808,25276
59860147,25281
59861485,25270
59862825,25274
59864164,25269
59865505,25270
59866844,25273
59868183,25276
59869522,25273
59870862,25277
59872201,25270
59873540,25273
59874879,25262
59876218,25268
59877557,25264
59878896,25272
59880235,25269
59881574,25265
59882913,25272
59884252,25271
59885592,25259
59886930,25267
59888270,25264
59889608,25265
59890948,25271
59892287,25264
59893625,25270
59894966,25270
59896305,25255
59897644,25266
59898983,25264
59900322,25253
59901660,25266
59903000,25251
59904338,25274
59905678,25259
59907018,25264
59908356,25271
59909696,25251
59911035,25263
59912374,25260
59913713,25260
59915052,25268
59916391,25263
59917730,25258
59919068,25267
59920408,25260
59921747,25259
59923086,25267
59924426,25262
59925765,25259
59927105,25262
59928443,25260
59929783,25264
59931122,25255
59932461,25257
59933799,25256
59935138,25258
59936478,25270
59937817,25249
59939156,25250
59940495,25266
59941834,25262
59943173,25263
59944512,25256
59945851,25249
59947190,25255
59948912,25261
59950253,25261
59951593,25260
59952935,25247
59954275,25247
59955617,25256
59956956,25250
59958295,25252
59959634,25251
59960973,25244
59962313,25257
59963652,25254
59964991,25258
59966330,25248
59967669,25240
59969008,25255
59970347,25248
59971686,25245
59974289,25257
59975629,25248
59976967,25254
59978307,25246
59979646,25241
59980985,25255
59982324,25251
59983663,25261
59985002,25255
59986342,25262
59987680,25252
59989020,25254
59990359,25255
59991698,25257
59993037,25258
59994376,25258
59995715,25258
59997054,25251
59998392,25254
59999731,25252
60001071,25263
60002410,25251
60003749,25253
60005088,25254
60006427,25253
60007766,25259
60009104,25253
60010444,25265
60011783,25252
60013123,25248
60014462,25258
60015801,25245
60017140,25258
60018479,25247
60019818,25256
60021157,25260
60022497,25266
60023835,25263
60025175,25244
60026515,25248
60027855,25259
60029194,25255
60030532,25256
60031872,25258
60033211,25260
60034551,25261
60035889,25264
60037229,25252
60038568,25271
60039907,25256
60041245,25250
60042585,25258
60043924,25263
60045262,25264
60046602,25247
60047941,25260
60049280,25262
60050618,25256
60051958,25258
60053296,25260
60054636,25255
60055976,25265
60057315,25255
60058654,25261
60059993,25256
60061332,25250
60062671,25250
60064011,25270
60065349,25249
60066689,25263
60068028,25257
60069367,25253
60070705,25266
60072045,25251
60073383,25258
60074722,25257
60076062,25263
60077401,25264
60078740,25258
60080080,25259
60081419,25258
60082758,25255
60084099,25255
60085438,25265
60086777,25253
60088117,25265
60089456,25259
60090795,25265
60092134,25261
60093474,25253
60094813,25263
60096152,25259
60097492,25251
60098831,25263
60100170,25251
60101509,25263
60102848,25263
60104187,25253
60105907,25257
60107249,25259
60109857,25249
60111197,25254
60112538,25257
60113878,25255
60115218,25257
60116557,25243
60117896,25262
60119236,25258
60120574,25254
60121914,25272
60123253,25253
60124592,25263
60125931,25259
60127270,25257
60128609,25255
60129948,25258
60131287,25256
60132626,25260
60133965,25266
60135305,25258
60136645,25264
60137984,25256
60139323,25262
60140662,25255
60142001,25260
60143339,25264
60144679,25260
60146018,25269
60147358,25254
60148697,25269
60150036,25257
60151374,25259
60152713,25260
60154053,25268
60155391,25256
60156731,25262
60158070,25264
60159408,25259
60160747,25267
60162088,25266
60163428,25268
60164768,25264
60166107,25264
60167447,25265
60168786,25275
60170125,25276
60171464,25269
60172803,25264
60174142,25264
60175481,25281
60176820,25275
60178160,25258
60179499,25271
60180838,25267
60182176,25269
60183517,25273
60184856,25269
60186195,25275
60187534,25265
60188873,25272
60190212,25285
60191551,25277
60192891,25268
60194230,25266
60195569,25265
60196908,25274
60198247,25276
60199585,25277
60200924,25282
60202264,25272
60203603,25265
60204942,25268
60206281,25268
60207619,25279
60208959,25269
60210297,25279
60211636,25278
60212975,25277
60214315,25274
60215654,25271
60216993,25278
60218332,25287
60219671,25275
60221010,25269
60222348,25277
60223689,25272
60225028,25278
60226368,25285
60227707,25273
60229046,25282
60230384,25280
60231724,25275
60233063,25281
60234402,25284
60235741,25290
60237080,25279
60238418,25280
60239758,25275
60241096,25284
60242436,25284
60245040,25283
60246380,25278
60247719,25289
60249057,25290
60250397,25275
60251736,25286
60253075,25282
60254413,25285
60255753,25289
60257094,25280
60258433,25296
60259771,25289
60261112,25284
60262830,25289
60264171,25275
60265512,25289
60266853,25282
60268194,25289
60269534,25292
60270873,25292
60272212,25292
60273551,25292
60274889,25293
60276229,25287
60277569,25296
60278908,25297
60280247,25291
60281585,25288
60282925,25286
60284263,25297
60285603,25288
60286942,25295
60288280,25299
60289620,25293
60290959,25306
60292299,25291
60293638,25275
60294977,25296
60296316,25298
60297656,25302
60298995,25296
60300334,25303
60301672,25296
60303012,25293
60304350,25298
60305689,25301
60307029,25300
60308368,25305
60309707,25304
60311046,25291
60312385,25298
60313724,25292
60315063,25294
60316402,25296
60317741,25306
60319080,25289
60320419,25298
60321758,25312
60323097,25300
60324436,25304
60325775,25311
60327114,25299
60328453,25306
60329791,25307
60331131,25306
60332470,25309
60333810,25308
60335150,25308
60336489,25312
60337828,25296
60339167,25313
60340508,25304
60341847,25296
60343186,25307
60344524,25300
60345863,25310
60347202,25303
60348541,25303
60349880,25312
60351219,25307
60352557,25312
60353897,25316
60355236,25310
60356575,25309
60357915,25319
60359254,25301
60360592,25320
60361932,25306
60363271,25313
60364610,25311
60365948,25304
60367288,25319
60368627,25314
60369967,25299
60371306,25313
60372645,25304
60373984,25313
60375322,25311
60376661,25321
60378002,25319
60381435,25319
60382775,25333
60384114,25336
60385452,25318
60386792,25320
60388131,25330
60389470,25328
60390809,25331
60392148,25321
60393487,25328
60394826,25325
60396164,25320
60397505,25325
60398844,25323
60400182,25331
60401522,25331
60402861,25320
60404200,25332
60405539,25333
60406878,25323
60408216,25327
60409556,25325
60410895,25326
60412233,25329
60413573,25319
60414912,25328
60416251,25337
60417590,25337
60419309,25338
60420651,25326
60421992,25331
60423334,25336
60424675,25332
60426015,25337
60427354,25333
60428692,25344
60430031,25338
60431370,25335
60432710,25332
60434049,25330
60435388,25343
60436726,25340
60438066,25334
60439405,25343
60440745,25334
60442084,25344
60443423,25345
60444761,25338
60446100,25341
60447441,25337
60448780,25339
60450120,25342
60451459,25347
60452798,25335
60454136,25345
60455476,25338
60456815,25340
60458155,25343
60459494,25344
60460832,25345
60462172,25339
60463511,25344
60464850,25341
60466189,25347
60467528,25343
60468868,25342
60470207,25344
60471546,25350
60472885,25347
60474224,25345
60475563,25343
60476903,25347
60478241,25342
60479580,25334
60480920,25338
60482259,25352
60483598,25342
60484937,25354
60486276,25345
60487615,25344
60488954,25340
60490294,25342
60491633,25348
60492972,25343
60494311,25343
60495651,25347
60496990,25345
60498330,25356
60499669,25359
60501009,25347
60502347,25345
60503687,25352
60505026,25356
60506366,25348
60507706,25344
60509044,25351
60510384,25351
60511724,25350
60513063,25353
60514402,25349
60517008,25349
60518348,25346
60519686,25347
60521026,25352
60522364,25353
60523704,25346
60525043,25354
60526382,25357
60527720,25342
60529060,25355
60530399,25356
60531738,25355
60533077,25359
60534415,25348
60535755,25353
60537093,25362
60538433,25357
60539771,25367
60541111,25369
60542449,25363
60543789,25355
60545128,25357
60546468,25371
60547808,25364
60549147,25357
60550486,25363
60551825,25362
60553164,25356
60554504,25363
60555842,25360
60557182,25371
60558521,25359
60559860,25372
60561199,25360
60562538,25357
60563877,25361
60565217,25353
60566555,25359
60567895,25365
60569234,25360
60570574,25359
60571913,25360
60573252,25355
60574972,25361
60576314,25363
60577655,25346
60578997,25360
60580338,25351
60581680,25362
60583018,25360
60584358,25359
60585698,25360
60587037,25348
60588377,25352
60589716,25350
60591055,25352
60592394,25347
60593733,25344
60595072,25350
60596411,25334
60597750,25337
60599089,25351
60600428,25338
60601767,25344
60603106,25332
60604445,25345
60605784,25335
60607123,25336
60608463,25338
60609803,25338
60611142,25365
60612481,25340
60613819,25322
60615159,25328
60616499,25319
60617838,25327
60619176,25329
60620516,25320
60621854,25317
60623194,25315
60624533,25314
60625873,25313
60627212,25312
60628551,25306
60629890,25321
60631229,25309
60632567,25302
60633907,25305
60635246,25310
60636586,25305
60637925,25294
60639264,25334
60640603,25287
60641942,25285
60643282,25304
60644621,25299
60645960,25300
60647300,25292
60648639,25281
60649978,25288
60652582,25292
60653924,25291
60655264,25293
60656603,25278
60657942,25281
60659281,25274
60660621,25283
60661960,25287
60663299,25276
60664638,25269
60665977,25270
60667316,25279
60668655,25280
60669994,25280
60671333,25265
60672671,25270
60674012,25266
60675352,25269
60676691,25268
60678029,25276
60679369,25257
60680708,25268
60682047,25265
60683386,25263
60684725,25273
60686065,25258
60687404,25267
60688743,25255
60690082,25264
60691421,25267
60692759,25255
60694099,25270
60695438,25255
60696777,25249
60698116,25252
60699455,25258
60700794,25254
60702133,25259
60703471,25255
60704811,25258
60706150,25252
60707489,25255
60708828,25254
60710166,25247
60711506,25258
60712845,25254
60714185,25245
60715524,25252
60716864,25245
60718203,25256
60719541,25254
60720880,25246
60722220,25251
60723559,25242
60724897,25255
60726237,25252
60727576,25273
60728914,25254
60730254,25241
60731975,25242
60733315,25245
60734657,25242
60735998,25252
60737340,25251
60738680,25245
60740019,25251
60741357,25248
60742696,25250
60744036,25251
60745375,25234
60746714,25246
60748054,25237
60749393,25245
60750732,25253
60752071,25242
60753409,25251
60754749,25251
60756088,25252
60757427,25243
60758766,25239
60760105,25252
60761444,25242
60762783,25239
60764121,25244
60765461,25239
60766800,25244
60768139,25237
60769477,25229
60770817,25238
60772155,25242
60773495,25247
60774834,25240
60776173,25245
60777512,25236
60778851,25235
60780190,25245
60781529,25241
60782868,25236
60784207,25240
60785546,25234
60788152,25237
60789492,25240
60790832,25240
60792171,25229
60793511,25239
60794850,25228
60796189,25245
60797528,25229
60798867,25234
60800206,25236
60801544,25232
60802884,25239
60804224,25231
60805563,25242
60806902,25218
60808241,25231
60809582,25231
60810920,25226
60812260,25235
60813599,25230
60814938,25232
60816277,25222
60817616,25231
60818954,25229
60820294,25226
60821633,25234
60822972,25237
60824311,25231
60825650,25227
60826989,25229
60828328,25229
60829667,25225
60831006,25236
60832345,25226
60833684,25237
60835023,25231
60836362,25228
60837700,25230
60839040,25230
60840379,25224
60841718,25233
60843058,25238
60844397,25228
60845735,25235
60847074,25232
60848414,25236
60849753,25232
60851092,25231
60852431,25236
60853770,25232
60855108,25231
60856448,25243
60857787,25232
60859126,25232
60860465,25228
60861804,25233
60863143,25236
60864482,25229
60865822,25238
60867160,25242
60868501,25227
60869840,25231
60871179,25235
60872518,25234
60873857,25230
60875196,25229
60876535,25232
60877873,25231
60879212,25239
60880551,25247
60881891,25238
60883230,25246
60884569,25240
60885908,25237
60887625,25250
60888967,25232
60890308,25243
60891650,25239
60892990,25232
60894333,25242
60895672,25241
60897011,25244
60898350,25244
60899689,25241
60901029,25238
60902369,25230
60903708,25241
60905047,25241
60906385,25234
60907725,25241
60909064,25241
60910403,25231
60911742,25243
60913081,25254
60914420,25229
60915759,25250
60917098,25238
60918437,25244
60919776,25242
60921115,25244
60923720,25238
60925061,25241
60926400,25240
60927739,25249
60929078,25229
60930419,25253
60931757,25241
60933097,25242
60934436,25238
60935775,25243
60937114,25243
60938453,25235
60939791,25246
60941131,25247
60942470,25232
60943809,25248
60945148,25241
60946487,25243
60947826,25245
60949165,25241
60950505,25236
60951844,25240
60953183,25248
60954522,25247
60955861,25245
60957200,25245
60958540,25246
60959880,25253
60961221,25245
60962559,25248
60963899,25250
60965239,25237
60966578,25254
60967917,25239
60969256,25243
60970595,25253
60971933,25229
60973273,25248
60974612,25238
60975951,25244
60977290,25252
60978629,25246
60979968,25249
60981307,25247
60982646,25245
60983985,25248
60985324,25252
60986663,25243
60988002,25260
60989341,25240
60990680,25245
60992019,25251
60993359,25240
60994697,25246
60996037,25250
60997376,25258
60998714,25252
61000053,25250
61001393,25250
61002732,25251
61004071,25235
61005409,25256
61006749,25256
61008088,25249
61009428,25254
61010768,25249
61012107,25261
61013445,25255
61014785,25245
61016124,25258
61017463,25249
61018802,25254
61020141,25254
61021481,25250
61022820,25263
61024159,25252
61025498,25256
61026837,25255
61028176,25249
61029516,25266
61030854,25251
61032194,25255
61033533,25257
61034872,25267
61036211,25253
61037549,25261
61038889,25262
61040228,25267
61041567,25260
61042906,25258
61044627,25271
61045967,25261
61047308,25264
61048649,25260
61049990,25260
61051330,25271
61052669,25272
61054008,25258
61055347,25258
61056686,25255
61060119,25277
61061460,25282
61062798,25269
61064138,25276
61065477,25273
61066816,25289
61068155,25282
61069494,25278
61070833,25279
61072172,25274
61073511,25284
61074850,25286
61076189,25264
61077528,25269
61078866,25277
61080205,25285
61081545,25280
61082884,25295
61084222,25286
61085562,25276
61086901,25282
61088240,25287
61089579,25285
61090918,25294
61092257,25279
61093596,25283
61094935,25291
61096273,25282
61097613,25293
61098952,25281
61100291,25286
61101630,25288
61102969,25284
61104308,25294
61105647,25294
61106986,25294
61108325,25292
61109663,25286
61111003,25289
61112342,25292
61113681,25288
61115020,25290
61116360,25293
61117698,25295
61119038,25299
61120379,25299
61121719,25302
61123059,25293
61124398,25293
61125737,25299
61127076,25292
61128415,25297
61129753,25296
61131094,25292
61132433,25298
61133772,25293
61135110,25293
61136449,25293
61137789,25297
61139128,25298
61140467,25299
61141806,25291
61143146,25293
61144485,25295
61145824,25299
61147163,25304
61148502,25283
61149841,25300
61151180,25303
61152519,25313
61153857,25306
61155197,25300
61156536,25304
61157875,25296
61159213,25300
61160553,25292
61161892,25304
61163231,25303
61164570,25301
61165909,25308
61167248,25309
61168587,25306
61169926,25308
61171265,25309
61172604,25301
61173943,25312
61175282,25305
61176620,25310
61177960,25316
61179298,25303
61180638,25319
61181976,25303
61183317,25307
61184655,25307
61185995,25306
61187336,25311
61188675,25308
61190014,25304
61191353,25310
61192692,25303
61195293,25316
61196633,25307
61197973,25307
61199311,25316
61201031,25298
61202371,25310
61203711,25319
61205052,25322
61206392,25311
61207734,25309
61209073,25314
61210412,25309
61211750,25309
61213090,25306
61214430,25309
61215769,25312
61217108,25319
61218447,25305
61219786,25318
61221124,25315
61222463,25306
61223803,25313
61225142,25316
61226480,25311
61227819,25314
61229159,25308
61230499,25307
61231838,25321
61233178,25316
61234518,25314
61235856,25319
61237196,25317
61238535,25328
61239874,25318
61241213,25307
61242552,25317
61243890,25325
61245230,25326
61246569,25308
61247908,25316
61249247,25328
61250586,25315
61251925,25324
61253265,25321
61254604,25322
61255942,25335
61257281,25323
61258621,25325
61259960,25325
61261298,25323
61262638,25329
61263977,25316
61265316,25327
61266655,25331
61267994,25332
61269332,25328
61270671,25315
61272011,25333
61273351,25330
61274690,25320
61276029,25331
61277369,25330
61278710,25330
61280048,25334
61281388,25329
61282727,25332
61284065,25334
61285405,25334
61286744,25331
61288083,25322
61289422,25337
61290760,25336
61292099,25326
61293438,25332
61294778,25329
61296117,25339
61297456,25339
61298795,25325
61300134,25337
61301473,25336
61302812,25338
61304151,25341
61305490,25336
61306829,25344
61308168,25341
61309508,25338
61310847,25338
61312187,25334
61313526,25328
61314865,25349
61316204,25339
61317542,25351
61318882,25347
61320221,25338
61321560,25353
61322899,25343
61324238,25352
61325576,25345
61326916,25334
61328255,25342
61330859,25345
61332199,25349
61333537,25344
61334876,25347
61336216,25349
61337555,25342
61338894,25350
61340233,25350
61341572,25350
61342911,25347
61344250,25341
61345588,25341
61346928,25344
61348267,25353
61349606,25348
61350945,25353
61352284,25347
61353623,25337
61354961,25343
61356301,25349
61358021,25350
61359361,25349
61360702,25353
61362044,25350
61363385,25346
61364725,25353
61366064,25347
61367403,25353
61368742,25348
61370082,25346
61371420,25350
61372761,25353
61374100,25349
61375439,25355
61376778,25363
61378116,25347
61379456,25350
61380796,25357
61382135,25361
61383474,25359
61384813,25362
61386152,25353
61387492,25354
61388831,25357
61390171,25353
61391509,25364
61392849,25365
61394188,25357
61395526,25359
61396866,25356
61398205,25362
61399544,25364
61400882,25352
61402222,25363
61403562,25351
61404900,25370
61406240,25358
61407579,25353
61408918,25366
61410257,25362
61411596,25361
61412935,25354
61414274,25358
61415612,25368
61416951,25358
61418290,25362
61419630,25371
61420969,25364
61422308,25362
61423647,25358
61424986,25369
61426326,25372
61427665,25361
61429005,25365
61430345,25365
61431684,25371
61433023,25369
61434364,25373
61435704,25365
61437043,25368
61438381,25369
61439721,25372
61441060,25369
61442402,25374
61443742,25375
61445081,25365
61446420,25368
61447760,25376
61449099,25374
61450439,25377
61451778,25370
61453116,25372
61454456,25374
61455795,25371
61457134,25386
61458472,25366
61459811,25379
61461151,25378
61462490,25373
61463829,25376
61466433,25369
61467773,25379
61469112,25370
61470451,25375
61471790,25380
61473129,25379
61474468,25380
61475808,25380
61477147,25391
61478486,25389
61479825,25382
61481164,25374
61482503,25386
61483842,25379
61485181,25386
61486520,25393
61487859,25377
61489199,25394
61490538,25385
61491877,25372
61493215,25381
61494555,25378
61495893,25370
61497233,25387
61498573,25381
61499913,25385
61501252,25385
61502590,25393
61503930,25388
61505269,25380
61506608,25384
61507947,25393
61509286,25392
61510626,25390
61511965,25387
61513683,25384
61515024,25387
61516364,25385
61517706,25383
61519048,25387
61520389,25383
61521729,25385
61523068,25389
61524408,25374
61525747,25378
61527086,25380
61528426,25387
61529764,25376
61531104,25382
61532442,25377
61533782,25367
61535121,25372
61536460,25377
61537799,25383
61539138,25367
61540476,25370
61541816,25362
61543155,25368
61544494,25385
61545833,25363
61547172,25353
61548510,25368
61549850,25353
61551189,25361
61552527,25365
61553867,25347
61555206,25356
61556544,25358
61557883,25349
61559223,25344
61560562,25343
61561901,25345
61563240,25355
61564579,25349
61565918,25352
61567257,25343
61568596,25339
61569935,25352
61571274,25333
61572614,25376
61573953,25340
61575292,25335
61576631,25341
61577971,25330
61579309,25340
61580649,25330
61581988,25326
61583326,25327
61584666,25318
61586006,25325
61587345,25325
61588684,25323
61590023,25323
61591363,25324
61592702,25324
61594041,25320
61595380,25308
61596719,25314
61598058,25316
61599397,25321
61602001,25311
61603341,25303
61604679,25315
61606019,25310
61607359,25300
61608698,25305
61610037,25295
61611376,25296
61612715,25303
61614053,25298
61615393,25301
61616732,25305
61618071,25285
61619410,25299
61620749,25296
61622089,25294
61623428,25293
61624768,25277
61626107,25294
61627445,25292
61628785,25288
61630124,25285
61631463,25279
61632802,25290
61634141,25284
61635480,25276
61636819,25283
61638158,25279
61639497,25278
61640837,25290
61642176,25266
61643515,25276
61644854,25289
61646193,25271
61647532,25275
61648871,25273
61650210,25277
61651548,25288
61652887,25268
61654227,25267
61655566,25280
61656905,25276
61658244,25278
61659583,25271
61660921,25285
61662261,25272
61663600,25270
61664940,25275
61666279,25270
61667618,25266
61668957,25270
61670677,25266
61672017,25271
61673358,25276
61674699,25268
61676041,25267
61677381,25266
61678720,25270
61680059,25270
61681397,25271
61682738,25267
61684076,25269
61685416,25262
61686756,25274
61688094,25267
61689434,25271
61690773,25266
61692112,25263
61693451,25264
61694790,25261
61696129,25261
61697468,25268
61698808,25261
61700148,25261
61701487,25265
61702826,25267
61704165,25259
61705504,25253
61706843,25248
61708182,25266
61709521,25270
61710860,25251
61712199,25261
61713537,25267
61714877,25251
61716216,25265
61717555,25259
61718894,25257
61720232,25262
61721572,25258
61722911,25260
61724250,25263
61725589,25265
61726928,25257
61728267,25261
61729606,25254
61730945,25249
61732284,25255
61733622,25253
61734962,25259
61738812,25242
61740153,25240
61741491,25250
61742831,25256
61744171,25252
61745510,25251
61746849,25246
61748189,25254
61749528,25245
61750867,25252
61752206,25250
61753545,25245
61754884,25260
61756223,25247
61757562,25245
61758901,25247
61760240,25247
61761579,25256
61762918,25252
61764256,25251
61765596,25252
61766935,25243
61768273,25255
61769613,25261
61770952,25250
61772291,25256
61773630,25250
61774969,25250
61776308,25257
61777647,25251
61778986,25249
61780326,25248
61781665,25250
61783004,25255
61784343,25257
61785682,25256
61787021,25256
61788359,25246
61789699,25256
61791037,25251
61792377,25264
61793716,25265
61795055,25247
61796394,25247
61797733,25255
61799072,25262
61800411,25262
61801749,25254
61803089,25255
61804428,25260
61805767,25254
61807106,25256
61808445,25254
61809784,25255
61811123,25261
61812461,25267
61813801,25266
61815140,25253
61816478,25262
61817818,25252
61819156,25254
61820495,25264
61821835,25259
61823174,25250
61824513,25253
61826235,25258
61827575,25245
61828916,25258
61830258,25249
61831600,25261
61832939,25265
61834279,25257
61835618,25241
61836957,25258
61838296,25262
61839636,25261
61840974,25260
61842314,25257
61843653,25249
61844991,25261
61846331,25258
61847670,25264
61849009,25267
61850348,25250
61851686,25262
61853026,25256
61854365,25261
61855704,25262
61857043,25256
61858381,25261
61859721,25259
61861060,25258
61862399,25259
61863739,25257
61865078,25260
61866417,25268
61867755,25262
61869095,25259
61870434,25263
61871773,25252
61874379,25263
61875719,25261
61877058,25271
61878397,25272
61879735,25258
61881075,25270
61882413,25265
61883753,25267
61885092,25265
61886431,25268
61887770,25263
61889109,25266
61890448,25258
61891787,25268
61893126,25267
61894465,25250
61895804,25266
61897142,25274
61898481,25276
61899821,25262
61901160,25271
61902499,25268
61903840,25258
61905179,25265
61906518,25267
61907857,25266
61909196,25266
61910535,25273
61911873,25261
61913213,25271
61914551,25272
61915890,25266
61917230,25278
61918569,25265
61919908,25267
61921247,25268
61922586,25258
61923924,25274
61925264,25265
61926603,25272
61927941,25269
61929281,25276
61930619,25278
61931959,25269
61933297,25279
61934636,25271
61935976,25270
61937315,25268
61938654,25278
61939993,25265
61941332,25281
61942670,25275
61944010,25268
61945349,25283
61946688,25271
61948027,25279
61949365,25272
61950705,25266
61952044,25278
61953383,25266
61954723,25270
61956062,25278
61957401,25281
61958740,25274
61960079,25271
61961418,25269
61962757,25286
61964095,25278
61965435,25263
61966774,25283
61968113,25276
61969452,25274
61970791,25277
61972130,25270
61973469,25274
61974808,25283
61976147,25277
61977486,25281
61978825,25270
61980164,25284
61981884,25283
61983226,25285
61984566,25280
61985908,25285
61987248,25294
61988590,25286
61989929,25283
61991268,25282
61992608,25286
61993947,25287
61995287,25284
61996625,25280
61997964,25282
61999303,25278
62000642,25289
62001982,25288
62003320,25297
62004660,25293
62005999,25297
62007338,25294
62009943,25296
62011283,25300
62012622,25301
62013962,25293
62015301,25293
62016640,25291
62017980,25287
62019319,25302
62020657,25297
62021997,25295
62023336,25291
62024675,25296
62026015,25296
62027353,25297
62028693,25295
62030031,25285
62031370,25289
62032709,25299
62034048,25301
62035387,25291
62036727,25296
62038065,25299
62039405,25288
62040744,25300
62042082,25298
62043422,25304
62044760,25300
62046099,25299
62047438,25294
62048778,25306
62050117,25291
62051456,25308
62052795,25301
62054134,25297
62055474,25307
62056813,25308
62058153,25293
62059493,25299
62060833,25302
62062172,25304
62063511,25304
62064850,25313
62066190,25312
62067529,25299
62068868,25308
62070207,25309
62071546,25300
62072884,25313
62074224,25296
62075562,25303
62076902,25313
62078241,25319
62079580,25317
62080919,25303
62082258,25299
62083597,25318
62084936,25311
62086275,25304
62087614,25315
62088953,25315
62090292,25312
62091631,25310
62092970,25310
62094308,25320
62095648,25313
62096987,25314
62098327,25314
62099666,25310
62101005,25315
62102344,25306
62103684,25312
62105023,25316
62106362,25305
62107701,25321
62109039,25311
62110379,25319
62111718,25313
62113057,25319
62114396,25314
62115734,25302
62117074,25311
62118413,25315
62119752,25317
62121091,25318
62122431,25318
62123770,25315
62125109,25319
62126448,25320
62127787,25316
62129125,25320
62130465,25317
62131804,25322
62133142,25315
62134482,25317
62135821,25326
62137159,25316
62138880,25325
62140220,25314
62141561,25323
62142902,25316
62145509,25315
62146849,25322
62148189,25323
62149528,25329
62150867,25328
62152207,25325
62153545,25332
62154884,25320
62156222,25328
62157561,25330
62158901,25331
62160240,25324
62161579,25325
62162918,25324
62164257,25327
62165596,25318
62166935,25330
62168274,25324
62169613,25331
62170952,25335
62172291,25332
62173630,25330
62174969,25338
62176308,25317
62177647,25334
62178986,25333
62180325,25331
62181664,25328
62183003,25326
62184342,25327
62185681,25336
62187020,25337
62188359,25343
62189698,25330
62191037,25331
62192376,25339
62193715,25326
62195054,25337
62196393,25334
62197732,25336
62199072,25336
62200411,25342
62201750,25337
62203089,25342
62204428,25336
62205767,25342
62207106,25349
62208445,25351
62209784,25348
62211124,25337
62212464,25333
62213803,25343
62215142,25341
62216482,25340
62217821,25336
62219160,25344
62220499,25339
62221838,25345
62223177,25347
62224516,25327
62225855,25338
62227193,25341
62228533,25338
62229872,25347
62231211,25339
62232550,25340
62233889,25338
62235227,25351
62236567,25340
62237906,25342
62239244,25329
62240584,25348
62241923,25340
62243263,25344
62244601,25351
62245941,25340
62247279,25348
62248619,25341
62249957,25342
62251295,25339
62252635,25339
62253974,25350
62255312,25355
62256652,25346
62257992,25350
62259330,25353
62260669,25343
62262009,25342
62263348,25352
62264687,25360
62266026,25356
62267365,25341
62268703,25344
62270043,25352
62271382,25350
62272721,25352
62274060,25347
62275399,25359
62276738,25347
62278078,25356
62280683,25353
62282023,25351
62283362,25355
62284701,25347
62286040,25351
62287379,25357
62288717,25361
62290057,25346
62291396,25345
62292735,25356
62294074,25354
62295793,25363
62297134,25351
62298474,25366
62299816,25354
62301157,25361
62302497,25363
62303836,25351
62305175,25368
62306513,25365
62307853,25367
62309192,25374
62310531,25358
62311870,25360
62313209,25359
62314548,25359
62315887,25361
62317226,25364
62318565,25360
62319904,25364
62321243,25358
62322582,25358
62323920,25364
62325260,25366
62326600,25363
62327939,25363
62329278,25364
62330617,25381
62331955,25361
62333295,25373
62334634,25363
62335974,25369
62337313,25360
62338652,25371
62339990,25369
62341329,25369
62342668,25377
62344008,25370
62345347,25366
62346686,25373
62348025,25369
62349364,25367
62350703,25379
62352042,25368
62353381,25366
62354721,25380
62356060,25371
62357399,25374
62358738,25371
62360077,25364
62361416,25383
62362755,25375
62364093,25381
62365433,25368
62366773,25371
62368113,25375
62369452,25365
62370791,25372
62372131,25384
62373471,25381
62374810,25370
62376149,25382
62377488,25371
62378827,25384
62380166,25382
62381506,25384
62382845,25374
62384184,25375
62385523,25382
62386862,25380
62388201,25366
62389540,25374
62390879,25375
62392217,25387
62393557,25368
62394895,25380
62396235,25380
62397574,25378
62398913,25379
62400253,25387
62401592,25382
62402931,25385
62404270,25379
62405609,25378
62406949,25382
62408287,25391
62409627,25385
62410966,25381
62412306,25380
62413645,25384
62417494,25394
62418834,25396
62420173,25400
62421512,25395
62422851,25403
62424190,25389
62425529,25390
62426867,25398
62428207,25410
62429546,25412
62430885,25390
62432224,25389
62433563,25405
62434902,25399
62436241,25383
62437580,25393
62438920,25399
62440259,25401
62441598,25404
62442937,25403
62444277,25404
62445617,25397
62446956,25410
62448295,25400
62449634,25404
62451355,25412
62452697,25392
62454037,25402
62455379,25409
62456719,25413
62458060,25397
62459399,25399
62460738,25403
62462077,25403
62463416,25404
62464756,25400
62466098,25402
62467438,25408
62468778,25408
62470117,25413
62471456,25404
62472794,25408
62474133,25407
62475473,25407
62476812,25411
62478151,25413
62479489,25409
62480829,25419
62482167,25411
62483508,25415
62484847,25414
62486186,25405
62487524,25409
62488864,25412
62490203,25411
62491542,25419
62492881,25413
62494220,25412
62495559,25412
62496899,25416
62498238,25422
62499576,25418
62500915,25410
62502255,25428
62503594,25407
62504933,25420
62506272,25399
62507611,25415
62508949,25421
62510289,25416
62511628,25419
62512967,25415
62514305,25404
62515645,25422
62516984,25417
62518324,25415
62519663,25412
62521002,25418
62522341,25424
62523680,25409
62525020,25418
62526359,25424
62527699,25414
62529039,25417
62530377,25413
62531717,25417
62533055,25422
62534395,25420
62535734,25421
62537073,25431
62538411,25413
62539751,25431
62541090,25424
62542429,25418
62543768,25422
62545107,25413
62546446,25430
62547785,25414
62549123,25427
62550463,25428
62553067,25416
62554407,25422
62555746,25427
62557085,25426
62558423,25418
62559763,25428
62561102,25429
62562442,25420
62563780,25424
62565120,25415
62566459,25420
62567797,25419
62569136,25428
62570476,25421
62571815,25412
62573154,25423
62574493,25417
62575832,25422
62577171,25415
62578509,25412
62579849,25409
62581188,25413
62582527,25409
62583866,25420
62585206,25412
62586544,25415
62587885,25408
62589224,25397
62590563,25412
62591903,25403
62593242,25393
62594583,25397
62595922,25382
62597261,25397
62598600,25391
62599939,25393
62601278,25384
62602617,25385
62603955,25398
62605295,25386
62606633,25389
62608354,25386
62609695,25377
62611037,25374
62612379,25373
62613720,25384
62615061,25374
62616400,25377
62617739,25366
62619078,25378
62620418,25372
62621757,25371
62623096,25368
62624435,25376
62625774,25368
62627113,25357
62628452,25371
62629790,25362
62631130,25351
62632468,25346
62633808,25354
62635147,25362
62636486,25349
62637825,25345
62639164,25359
62640504,25346
62641843,25349
62643182,25344
62644521,25348
62645859,25341
62647199,25340
62648538,25345
62649877,25340
62651216,25342
62652555,25341
62653894,25326
62655232,25335
62656572,25338
62657911,25325
62659250,25330
62660588,25328
62661928,25321
62663267,25330
62664606,25320
62665945,25325
62667284,25325
62668623,25321
62669962,25318
62671301,25321
62672640,25314
62673979,25325
62675318,25312
62676657,25323
62677996,25316
62679336,25349
62680675,25318
62682014,25304
62683354,25318
62684694,25313
62686033,25310
62688637,25319
62689977,25299
62691315,25305
62692655,25307
62693994,25314
62695333,25316
62696672,25311
62698011,25305
62699350,25311
62700688,25310
62702027,25310
62703367,25300
62704706,25313
62706045,25300
62707384,25304
62708722,25306
62710061,25325
62711401,25303
62712740,25296
62714080,25304
62715419,25301
62716759,25307
62718098,25308
62719436,25292
62720776,25303
62722116,25310
62723456,25298
62724795,25306
62726134,25296
62727472,25297
62728812,25298
62730151,25299
62731490,25300
62732829,25300
62734168,25304
62735508,25309
62736847,25293
62738186,25316
62739525,25288
62740866,25295
62742205,25298
62743543,25293
62744883,25301
62746222,25301
62747561,25286
62748900,25301
62750239,25288
62751578,25291
62752916,25295
62754256,25297
62755595,25298
62756934,25300
62758273,25296
62759612,25294
62760952,25291
62762291,25298
62764009,25292
62765351,25290
62766691,25303
62768033,25296
62769374,25297
62770715,25296
62772055,25288
62773394,25299
62774733,25295
62776072,25295
62777412,25293
62778751,25293
62780090,25296
62781429,25297
62782767,25287
62784107,25306
62785445,25291
62786785,25291
62788124,25277
62789464,25290
62790804,25288
62792143,25289
62793484,25301
62794823,25285
62796163,25288
62797502,25289
62798842,25292
62800181,25286
62801520,25289
62802859,25283
62804198,25295
62805537,25296
62806877,25292
62808215,25289
62809555,25276
62810893,25280
62812233,25284
62813571,25293
62814911,25292
62816249,25282
62817590,25280
62818929,25279
62820268,25277
62821607,25290
62824211,25284
62825550,25284
62826888,25294
62828228,25281
62829567,25279
62830906,25285
62832245,25283
62833584,25290
62834923,25289
62836263,25288
62837603,25286
62838941,25282
62840281,25292
62841621,25280
62842961,25284
62844300,25291
62845639,25274
62846978,25290
62848317,25293
62849656,25280
62850995,25291
62852335,25293
62853674,25280
62855013,25291
62856353,25292
62857691,25290
62859030,25300
62860370,25282
62861709,25281
62863048,25299
62864387,25284
62865726,25291
62867065,25287
62868403,25288
62869743,25302
62871081,25288
62872421,25289
62873761,25286
62875100,25283
62876439,25292
62877778,25288
62879117,25284
62880457,25293
62881796,25287
62883135,25288
62884474,25291
62885812,25293
62887152,25304
62888490,25296
62889830,25293
62891169,25291
62892508,25299
62893847,25296
62895186,25288
62896525,25285
62897864,25295
62899203,25277
62900542,25299
62901881,25293
62903220,25282
62904559,25297
62905899,25297
62907238,25300
62908576,25296
62909916,25293
62911255,25300
62912594,25283
62913933,25285
62915272,25300
62916611,25290
62917950,25288
62919289,25291
62921009,25283
62922349,25294
62923690,25292
62925032,25288
62926373,25291
62927713,25286
62929052,25295
62930391,25287
62931730,25296
62933069,25294
62934407,25284
62935746,25299
62937086,25293
62938425,25277
62939765,25296
62941104,25281
62942443,25290
62943782,25299
62945121,25292
62946460,25282
62947800,25294
62949139,25280
62950478,25286
62951817,25296
62953155,25296
62954495,25282
62955834,25288
62957174,25295
62959779,25288
62961118,25288
62962458,25283
62963796,25287
62965135,25290
62966474,25288
62967814,25280
62969153,25295
62970492,25285
62971831,25296
62973170,25286
62974509,25288
62975848,25292
62977187,25287
62978527,25293
62979867,25296
62981206,25293
62982545,25303
62983884,25280
62985223,25300
62986561,25289
62987901,25291
62989239,25289
62990579,25288
62991918,25291
62993258,25295
62994597,25297
62995936,25291
62997276,25302
62998616,25298
62999955,25292
63001294,25303
63002634,25294
63003973,25302
63005312,25280
63006651,25295
63007990,25300
63009329,25297
63010668,25280
63012007,25291
63013346,25294
63014685,25294
63016024,25291
63017362,25301
63018702,25314
63020041,25284
63021380,25289
63022719,25303
63024057,25296
63025397,25308
63026737,25289
63028076,25304
63029415,25304
63030754,25291
63032093,25304
63033431,25307
63034770,25301
63036110,25307
63037449,25307
63038788,25291
63040127,25293
63041466,25308
63042805,25299
63044144,25295
63045483,25299
63046822,25304
63048161,25301
63049500,25306
63050839,25301
63052178,25311
63053516,25317
63054856,25303
63056195,25306
63057533,25304
63058872,25310
63060212,25316
63061550,25302
63062890,25315
63064229,25316
63065568,25306
63066907,25322
63068246,25309
63069585,25312
63070924,25310
63072262,25310
63073602,25314
63074941,25319
63076658,25301
63077999,25311
63079340,25310
63080681,25313
63082021,25313
63083362,25314
63084702,25319
63086041,25316
63087380,25308
63088719,25318
63090059,25316
63091398,25318
63092737,25315
63096172,25333
63097512,25326
63098852,25331
63100191,25332
63101530,25328
63102869,25330
63104207,25323
63105546,25327
63106886,25328
63108226,25324
63109565,25327
63110903,25328
63112243,25325
63113582,25331
63114921,25319
63116261,25327
63117600,25332
63118939,25336
63120278,25338
63121617,25324
63122956,25329
63124296,25329
63125635,25329
63126973,25337
63128312,25335
63129651,25328
63130991,25333
63132330,25335
63133669,25331
63135008,25338
63136347,25334
63137686,25334
63139025,25321
63140364,25328
63141703,25340
63143042,25341
63144381,25328
63145720,25329
63147059,25343
63148399,25335
63149739,25341
63151078,25347
63152417,25344
63153757,25340
63155098,25340
63156437,25336
63157777,25341
63159116,25341
63160455,25329
63161793,25339
63163133,25349
63164472,25343
63165811,25342
63167149,25336
63168488,25334
63169828,25344
63171167,25338
63172506,25328
63173845,25337
63175184,25348
63176523,25342
63177862,25342
63179201,25352
63180540,25346
63181880,25342
63183219,25344
63184558,25343
63185897,25348
63187236,25344
63188574,25326
63189913,25345
63191253,25342
63192592,25350
63193931,25359
63195270,25344
63196609,25346
63197948,25334
63199287,25347
63200625,25347
63201964,25350
63203304,25353
63204642,25353
63205981,25354
63207321,25358
63208660,25341
63210000,25341
63211338,25339
63212678,25343
63214017,25349
63215355,25351
63216695,25343
63218033,25361
63219372,25347
63220712,25348
63222051,25349
63223390,25351
63224729,25356
63226068,25348
63227407,25357
63228746,25349
63231349,25344
63232689,25356
63234410,25346
63235751,25360
63237091,25351
63238434,25354
63239776,25356
63241115,25345
63242455,25346
63243794,25357
63245133,25343
63246472,25355
63247811,25353
63249150,25355
63250489,25366
63251828,25358
63253167,25341
63254506,25359
63255845,25342
63257185,25368
63258524,25359
63259863,25354
63261201,25367
63262540,25352
63263880,25356
63265219,25363
63266558,25355
63267898,25351
63269237,25358
63270576,25361
63271915,25367
63273254,25352
63274593,25356
63275932,25357
63277272,25356
63278611,25359
63279950,25360
63281289,25354
63282627,25348
63283967,25358
63285306,25360
63286645,25364
63287983,25369
63289323,25373
63290662,25355
63292001,25369
63293340,25359
63294679,25362
63296017,25373
63297357,25360
63298696,25368
63300034,25367
63301374,25353
63302713,25370
63304051,25364
63305391,25364
63306730,25368
63308069,25365
63309408,25372
63310748,25365
63312086,25378
63313425,25369
63314765,25366
63316103,25366
63317443,25374
63318782,25368
63320121,25372
63321459,25364
63322798,25377
63324138,25371
63325476,25362
63326816,25379
63328155,25366
63329494,25373
63330832,25367
63332173,25362
63333512,25378
63334851,25373
63336189,25370
63337529,25376
63338869,25369
63340208,25379
63341547,25375
63342886,25382
63344225,25382
63345563,25363
63346903,25371
63348242,25373
63349581,25374
63350920,25385
63352259,25386
63353599,25362
63354938,25381
63356277,25385
63357616,25375
63358955,25382
63360294,25372
63361633,25380
63362973,25373
63364313,25378
63366917,25378
63368257,25374
63369596,25377
63370935,25378
63372274,25374
63373613,25384
63374953,25378
63376292,25375
63377631,25392
63378969,25381
63380308,25388
63381647,25385
63382987,25379
63384326,25378
63385666,25384
63387005,25374
63388345,25388
63390063,25383
63391404,25382
63392744,25386
63394087,25385
63395428,25389
63396769,25390
63398109,25362
63399448,25390
63400786,25388
63402126,25389
63403466,25385
63404804,25389
63406144,25389
63407484,25383
63408822,25390
63410161,25386
63411501,25389
63412840,25391
63414178,25387
63415518,25394
63416857,25394
63418196,25378
63419535,25391
63420875,25385
63422214,25390
63423553,25394
63424892,25391
63426230,25399
63427570,25387
63428909,25390
63430248,25394
63431587,25398
63432926,25387
63434265,25398
63435604,25389
63436943,25404
63438282,25386
63439621,25390
63440960,25398
63442299,25389
63443638,25399
63444977,25390
63446316,25385
63447655,25401
63448994,25390
63450333,25398
63451672,25401
63453011,25411
63454350,25401
63455689,25381
63457028,25395
63458367,25404
63459706,25401
63461045,25405
63462385,25398
63463723,25394
63465063,25409
63466402,25399
63467742,25402
63469082,25401
63470421,25408
63471760,25412
63473098,25403
63474438,25398
63475778,25406
63477117,25400
63478456,25411
63479794,25404
63481133,25412
63482473,25410
63483812,25404
63485150,25404
63486490,25407
63487829,25410
63489168,25402
63490509,25412
63491847,25409
63493187,25411
63494525,25407
63495865,25405
63497204,25395
63498544,25409
63499883,25411
63502487,25413
63503827,25401
63505166,25406
63506505,25410
63507844,25409
63509183,25415
63510522,25418
63511861,25419
63513200,25410
63514538,25411
63515877,25409
63517216,25415
63518555,25418
63519894,25404
63521234,25412
63522572,25409
63523911,25421
63525251,25425
63526590,25425
63527928,25413
63529268,25417
63530607,25403
63531946,25413
63533284,25418
63534624,25414
63535963,25417
63537302,25410
63538641,25398
63539980,25411
63541319,25421
63542658,25416
63543998,25414
63545337,25418
63547057,25407
63548397,25402
63549738,25409
63551079,25413
63552420,25411
63553760,25403
63555099,25407
63556437,25398
63557777,25410
63559116,25399
63560455,25403
63561795,25408
63563134,25398
63564472,25396
63565812,25398
63567151,25403
63568490,25397
63569829,25398
63571168,25397
63572506,25389
63573846,25393
63575185,25399
63576524,25394
63577863,25397
63579203,25386
63580542,25382
63581881,25398
63583220,25375
63584559,25374
63585898,25382
63587237,25369
63588576,25384
63589915,25377
63591254,25374
63592593,25367
63593932,25369
63595271,25363
63596610,25372
63597949,25361
63599288,25359
63600627,25357
63601966,25357
63603305,25362
63604646,25359
63605986,25362
63607325,25356
63608664,25346
63610003,25352
63611341,25345
63612681,25346
63614021,25348
63615360,25339
63616699,25341
63618038,25339
63619378,25340
63620717,25343
63622056,25332
63623396,25329
63624735,25335
63626074,25328
63627413,25340
63628752,25330
63630090,25333
63631429,25331
63632768,25319
63634108,25331
63635446,25327
63638052,25317
63639391,25326
63640730,25317
63642069,25323
63643408,25312
63644747,25312
63646086,25308
63647425,25319
63648764,25310
63650103,25322
63651441,25312
63652781,25307
63654119,25314
63655459,25304
63656798,25305
63658136,25314
63659476,25307
63660815,25307
63662153,25298
63663492,25303
63664832,25304
63666171,25309
63667510,25308
63668849,25298
63670188,25297
63671526,25299
63672866,25292
63674205,25299
63675544,25305
63676883,25299
63678222,25297
63679561,25292
63680900,25295
63682239,25301
63683578,25299
63684917,25287
63686256,25302
63687595,25291
63688934,25300
63690273,25298
63691611,25285
63692950,25298
63694290,25291
63695628,25295
63696968,25286
63698308,25290
63699647,25300
63700986,25292
63702703,25291
63704044,25297
63705383,25288
63706726,25291
63708067,25297
63709407,25290
63710746,25300
63712086,25293
63713425,25288
63714764,25294
63716104,25287
63717443,25290
63718782,25292
63720121,25280
63721459,25300
63722799,25286
63724138,25297
63725477,25287
63726816,25299
63728154,25289
63729494,25281
63730833,25288
63732172,25284
63733510,25288
63734851,25281
63736190,25276
63737529,25286
63738869,25280
63740208,25292
63741547,25286
63742886,25272
63744225,25283
63745564,25278
63746903,25297
63748242,25290
63749581,25275
63750920,25285
63752259,25283
63753598,25276
63754936,25281
63756276,25272
63757615,25282
63758954,25286
63760293,25275
63761632,25280
63762970,25281
63764310,25273
63765649,25275
63766988,25276
63768327,25265
63769665,25285
63771005,25265
63774852,25280
63776194,25273
63777533,25267
63778873,25284
63780214,25281
63781553,25270
63782892,25280
63784231,25274
63785570,25278
63786909,25279
63788248,25269
63789587,25280
63790926,25270
63792265,25278
63793604,25280
63794942,25277
63796281,25284
63797620,25277
63798960,25282
63800299,25276
63801638,25281
63802976,25285
63804316,25278
63805655,25272
63806993,25281
63808333,25279
63809672,25271
63811011,25281
63812350,25286
63813688,25281
63815028,25281
63816367,25278
63817707,25277
63819045,25278
63820385,25278
63821724,25280
63823063,25281
63824401,25277
63825741,25282
63827080,25279
63828419,25275
63829759,25282
63831098,25286
63832437,25277
63833776,25284
63835116,25289
63836455,25275
63837794,25280
63839133,25276
63840472,25282
63841812,25292
63843151,25281
63844489,25280
63845828,25285
63847168,25277
63848506,25284
63849845,25277
63851185,25279
63852524,25279
63853863,25267
63855202,25287
63856541,25280
63858260,25287
63859602,25280
63860942,25275
63862284,25280
63863624,25289
63864966,25287
63866304,25276
63867643,25272
63868982,25283
63870322,25279
63871662,25275
63873000,25279
63874341,25279
63875680,25288
63877019,25278
63878358,25286
63879697,25278
63881036,25284
63882374,25283
63883714,25280
63885054,25277
63886393,25282
63887732,25281
63889071,25280
63890411,25284
63891750,25289
63893088,25278
63894429,25276
63895767,25274
63897107,25281
63898446,25287
63899786,25280
63901124,25279
63902465,25279
63903804,25288
63905143,25284
63906482,25292
63907820,25292
63910425,25273
63911765,25282
63913104,25281
63914443,25293
63915782,25293
63917120,25279
63918460,25288
63919799,25292
63921138,25281
63922477,25280
63923816,25293
63925155,25288
63926493,25294
63927833,25292
63929172,25280
63930511,25285
63931851,25282
63933190,25293
63934529,25287
63935869,25275
63937210,25289
63938549,25293
63939888,25278
63941227,25281
63942566,25289
63943905,25287
63945244,25298
63946582,25284
63947922,25294
63949261,25284
63950600,25283
63951939,25289
63953278,25285
63954617,25302
63955956,25296
63957295,25290
63958634,25291
63959972,25290
63961311,25295
63962651,25291
63963990,25288
63965328,25301
63966667,25291
63968007,25299
63969347,25290
63970686,25289
63972025,25298
63973363,25300
63974702,25286
63976042,25301
63977381,25292
63978720,25306
63980057,25299
63981397,25292
63982736,25301
63984075,25298
63985414,25295
63986754,25308
63988092,25305
63989432,25303
63990771,25291
63992110,25294
63993449,25306
63994788,25301
63996127,25308
63997466,25297
63998805,25301
64000144,25293
64001482,25303
64002822,25293
64004161,25308
64005501,25291
64006840,25304
64008179,25305
64009517,25310
64010857,25308
64012197,25307
64013536,25307
64015256,25308
64016596,25303
64017937,25316
64019279,25307
64020620,25309
64021958,25303
64023298,25303
64024637,25312
64025977,25312
64027316,25309
64028655,25310
64029995,25304
64031334,25318
64032673,25309
64034012,25317
64035351,25317
64036690,25308
64038029,25317
64039368,25307
64040707,25316
64042046,25314
64043385,25319
64045990,25312
64047330,25313
64048670,25314
64050010,25312
64051350,25317
64052689,25311
64054027,25314
64055367,25315
64056706,25323
64058044,25325
64059384,25322
64060723,25320
64062062,25320
64063401,25317
64064740,25323
