56014480,23709
56015818,23714
56017158,23719
56018497,23718
56019836,23720
56021174,23715
56022514,23714
56023853,23720
56025192,23720
56026531,23714
56027869,23717
56029209,23714
56030547,23715
56031887,23716
56033226,23714
56035831,23711
56037171,23708
56038510,23720
56039849,23719
56041189,23713
56042907,23710
56044249,23715
56045590,23718
56046932,23722
56048273,23714
56049613,23712
56050953,23718
56052293,23720
56053632,23719
56054971,23709
56056310,23717
56057649,23725
56058987,23711
56060327,23709
56061666,23727
56063005,23728
56064344,23720
56065683,23713
56067022,23721
56068361,23717
56069699,23720
56071039,23714
56072378,23716
56073717,23722
56075056,23725
56076395,23722
56077734,23733
56079072,23713
56080412,23720
56081750,23724
56083090,23728
56084428,23730
56085767,23720
56087107,23732
56088446,23729
56089784,23730
56091124,23730
56092464,23728
56093802,23737
56095142,23736
56096481,23731
56097820,23731
56099159,23724
56100497,23729
56101837,23734
56103176,23725
56104514,23733
56105854,23731
56107193,23732
56108532,23734
56109871,23730
56111210,23743
56112549,23743
56113889,23736
56115227,23746
56116566,23737
56117906,23747
56119246,23740
56120586,23737
56121925,23750
56123264,23738
56124603,23740
56125942,23746
56127281,23730
56128620,23742
56129960,23743
56131299,23745
56132638,23755
56133977,23757
56135315,23752
56136655,23744
56137993,23757
56139333,23755
56140672,23758
56142011,23752
56143350,23758
56144689,23755
56146028,23762
56147367,23757
56148706,23765
56150045,23761
56151384,23754
56152724,23762
56154063,23766
56155402,23743
56156741,23766
56158079,23758
56159418,23775
56160757,23763
56162096,23774
56163435,23767
56164773,23763
56166112,23770
56167451,23776
56168790,23773
56171395,23768
56172733,23770
56174073,23769
56175412,23782
56176751,23773
56178090,23785
56179429,23774
56180768,23770
56182107,23779
56183447,23782
56184786,23758
56186125,23778
56187464,23792
56188803,23783
56190141,23782
56191481,23787
56192820,23795
56194160,23778
56195500,23787
56196839,23787
56198178,23785
56199888,23798
56201229,23795
56202571,23780
56203911,23796
56205253,23789
56206592,23788
56207931,23791
56209270,23787
56210609,23806
56211949,23792
56213288,23789
56214627,23790
56215966,23770
56217305,23804
56218643,23795
56219983,23805
56221322,23800
56222662,23791
56224001,23801
56225340,23795
56226680,23799
56228019,23807
56229359,23806
56230698,23802
56232037,23800
56233375,23805
56234715,23804
56236054,23795
56237393,23807
56238732,23806
56240071,23798
56241409,23803
56242749,23809
56244088,23821
56245426,23810
56246766,23808
56248105,23810
56249444,23812
56250783,23815
56252122,23816
56253460,23808
56254800,23826
56256139,23809
56257479,23814
56258818,23819
56260157,23805
56261495,23818
56262835,23811
56264174,23800
56265513,23818
56266852,23820
56268191,23828
56269530,23815
56270870,23817
56272208,23819
56273548,23816
56274888,23810
56276228,23832
56277567,23820
56278907,23824
56280246,23823
56281585,23818
56282924,23830
56284263,23826
56285602,23827
56286941,23824
56288280,23830
56289620,23828
56290959,23840
56292298,23812
56293637,23833
56294976,23831
56296315,23835
56297654,23832
56298993,23827
56300332,23834
56301671,23833
56303010,23828
56304349,23831
56306954,23832
56308294,23840
56309633,23829
56310971,23826
56312311,23829
56313650,23835
56314989,23835
56316328,23820
56317667,23824
56319006,23827
56320344,23820
56321684,23820
56323024,23819
56324363,23820
56325702,23822
56327041,23812
56328380,23825
56329718,23819
56331058,23810
56332397,23816
56333736,23809
56335075,23803
56336414,23800
56337752,23792
56339092,23802
56340430,23797
56341770,23793
56343109,23789
56344448,23777
56345788,23779
56347128,23785
56348467,23767
56349806,23769
56351144,23775
56352484,23829
56353823,23759
56355543,23761
56356884,23753
56358224,23748
56359567,23747
56360907,23748
56362247,23744
56363586,23736
56364925,23742
56366264,23730
56367603,23723
56368943,23726
56370282,23717
56371621,23727
56372960,23714
56374299,23705
56375638,23710
56376977,23700
56378316,23714
56379654,23696
56380994,23792
56382333,23701
56383672,23695
56385012,23696
56386352,23685
56387690,23691
56389030,23684
56390369,23674
56391708,23675
56393047,23678
56394386,23669
56395725,23668
56397064,23666
56398403,23667
56399741,23662
56401080,23748
56402420,23662
56403759,23653
56405098,23661
56406437,23654
56407776,23646
56409116,23653
56410457,23646
56411796,23654
56413135,23653
56414474,23650
56415813,23641
56417152,23647
56418491,23637
56419829,23651
56421169,23642
56424167,23641
56425507,23650
56426847,23645
56428186,23657
56429525,23651
56430864,23664
56432205,23648
56433544,23648
56434883,23660
56436222,23657
56437561,23643
56438900,23663
56440239,23649
56441579,23662
56444182,23660
56445522,23669
56446861,23663
56448200,23665
56449539,23659
56450879,23666
56452219,23666
56453558,23668
56454897,23661
56456236,23659
56457574,23667
56458914,23672
56460253,23663
56461592,23684
56462931,23668
56464270,23673
56465609,23675
56466948,23683
56468287,23686
56469626,23670
56470965,23672
56472304,23673
56473643,23676
56474982,23682
56476321,23685
56477660,23678
56478999,23682
56480338,23673
56481677,23686
56483016,23676
56484355,23676
56485693,23681
56487033,23682
56488372,23687
56489711,23687
56491050,23674
56492389,23694
56493728,23686
56495067,23692
56496406,23692
56497745,23679
56499085,23694
56500423,23684
56501763,23695
56503102,23698
56504441,23701
56505780,23689
56507119,23689
56508458,23692
56509797,23708
56511519,23694
56512860,23695
56514201,23700
56515544,23694
56516886,23704
56518226,23693
56519565,23690
56520904,23691
56522244,23695
56523584,23705
56524924,23703
56526263,23699
56527602,23703
56528941,23700
56530279,23703
56531619,23713
56532958,23699
56534297,23707
56535636,23706
56536976,23713
56538315,23716
56539655,23701
56540994,23707
56542334,23703
56543674,23710
56545013,23716
56546352,23702
56547691,23707
56549029,23712
56550369,23712
56551708,23723
56553048,23720
56554387,23714
56555725,23704
56557065,23707
56558404,23711
56559743,23709
56561082,23702
56562420,23710
56563760,23699
56565099,23708
56566438,23711
56567778,23707
56569118,23721
56570458,23705
56571796,23718
56573136,23709
56574475,23713
56575813,23716
56577152,23720
56579758,23709
56581098,23711
56582437,23710
56583777,23707
56585117,23707
56586456,23706
56587795,23709
56589136,23705
56590475,23703
56591814,23704
56593153,23709
56594492,23702
56595831,23713
56597169,23712
56598509,23701
56599848,23705
56601186,23705
56602526,23708
56603865,23708
56605204,23702
56606543,23700
56607882,23698
56609221,23705
56610560,23715
56611899,23701
56613237,23705
56614577,23692
56615916,23708
56617254,23704
56618594,23704
56619933,23702
56621271,23709
56622611,23701
56623950,23708
56625289,23692
56626628,23704
56627967,23700
56629306,23694
56630644,23709
56631984,23699
56633324,23703
56634663,23693
56636002,23692
56637341,23701
56638680,23699
56640020,23698
56641359,23695
56642698,23692
56644037,23692
56645376,23706
56646715,23706
56648054,23688
56649393,23698
56650732,23693
56652071,23704
56653410,23695
56654749,23696
56656088,23694
56657426,23687
56658766,23697
56660105,23695
56661444,23704
56662782,23684
56664122,23683
56665461,23695
56667181,23696
56668523,23690
56669863,23710
56671205,23691
56672545,23695
56673887,23694
56675226,23705
56676565,23701
56677904,23686
56679243,23690
56680583,23698
56681923,23685
56683262,23706
56684601,23697
56685940,23704
56687279,23688
56688618,23698
56689957,23702
56691296,23688
56692635,23698
56693974,23701
56695313,23689
56696652,23696
56697991,23687
56699331,23697
56700671,23704
56702010,23697
56703349,23702
56704687,23691
56706028,23695
56707368,23703
56708707,23690
56710046,23696
56711385,23691
56712723,23702
56715327,23706
56716667,23700
56718006,23700
56719345,23701
56720684,23707
56722023,23708
56723362,23706
56724702,23705
56726041,23699
56727380,23700
56728719,23702
56730058,23704
56731397,23701
56732736,23710
56734075,23703
56735414,23709
56736752,23700
56738092,23711
56739430,23701
56740770,23708
56742109,23705
56743447,23703
56744786,23701
56746126,23705
56747466,23718
56748805,23706
56750144,23707
56751483,23713
56752822,23708
56754161,23712
56755499,23710
56756839,23705
56758178,23709
56759516,23718
56760855,23711
56762195,23710
56763534,23713
56764872,23720
56766212,23715
56767551,23723
56768890,23722
56770228,23700
56771568,23716
56772908,23712
56774247,23722
56775586,23719
56776925,23713
56778264,23722
56779603,23723
56780941,23719
56782281,23729
56783621,23728
56784960,23724
56786299,23719
56787638,23720
56788977,23732
56790316,23720
56791654,23734
56792994,23726
56794333,23724
56795671,23739
56797011,23735
56798351,23710
56799691,23725
56801030,23738
56802370,23738
56803709,23737
56805049,23738
56806388,23745
56807727,23723
56809065,23733
56810404,23737
56811743,23741
56813083,23737
56814421,23732
56815761,23737
56817100,23747
56818439,23740
56819778,23753
56821117,23744
56822456,23741
56824177,23742
56825516,23743
56826857,23756
56828200,23753
56829541,23750
56830882,23748
56832221,23755
56833560,23761
56834900,23762
56836239,23750
56837578,23763
56838917,23763
56840256,23759
56841594,23754
56842934,23751
56844273,23758
56845611,23756
56846951,23768
56848290,23777
56850895,23774
56852234,23761
56853574,23772
56854913,23764
56856252,23767
56857592,23766
56858931,23771
56860270,23770
56861608,23772
56862948,23779
56864287,23771
56865626,23781
56866965,23777
56868304,23782
56869643,23788
56870982,23771
56872321,23786
56873660,23780
56874998,23785
56876338,23788
56877677,23785
56879016,23762
56880355,23785
56881694,23783
56883034,23789
56884373,23792
56885712,23792
56887052,23797
56888391,23800
56889730,23796
56891069,23794
56892408,23790
56893747,23793
56895086,23788
56896426,23784
56897765,23798
56899104,23801
56900443,23793
56901783,23798
56903121,23784
56904461,23792
56905800,23792
56907139,23771
56908478,23786
56909818,23786
56911157,23784
56912497,23783
56913836,23787
56915175,23788
56916514,23768
56917853,23775
56919190,23774
56920529,23773
56921868,23771
56923208,23771
56924547,23761
56925887,23764
56927226,23754
56928566,23754
56929904,23757
56931243,23754
56932583,23757
56933922,23745
56935260,23790
56936600,23738
56937939,23736
56939278,23740
56940616,23740
56941954,23732
56943294,23729
56944633,23719
56945972,23725
56947312,23720
56948651,23712
56949990,23713
56951329,23705
56952667,23702
56954007,23696
56955346,23699
56956685,23699
56958024,23694
56959363,23693
56960702,23687
56962043,23678
56963383,23678
56964722,23670
56966061,23675
56967400,23672
56968739,23667
56970078,23671
56971417,23657
56972756,23659
56974095,23648
56975433,23659
56976772,23652
56978112,23648
56979829,23639
56981171,23646
56982511,23637
56983852,23638
56986458,23637
56987799,23632
56989138,23632
56990477,23633
56991817,23628
56993156,23628
56994497,23713
56995836,23626
56997174,23609
56998514,23618
56999853,23619
57001193,23619
57002532,23623
57003871,23611
57005209,23619
57006549,23604
57007888,23613
57009227,23609
57010566,23617
57011905,23615
57013244,23607
57014583,23612
57015922,23604
57017261,23603
57018600,23626
57019939,23606
57021277,23614
57022617,23614
57023956,23610
57025295,23606
57026633,23609
57027972,23609
57029312,23610
57030651,23621
57031990,23614
57033329,23611
57034668,23614
57036007,23611
57037346,23619
57038686,23605
57040025,23609
57041364,23614
57042703,23613
57044042,23614
57045381,23612
57046719,23623
57048058,23613
57049397,23613
57050737,23622
57052077,23618
57053416,23618
57054754,23621
57056094,23622
57057434,23628
57058772,23629
57060111,23623
57061450,23627
57062790,23623
57064128,23632
57065468,23631
57066807,23630
57068146,23641
57069484,23632
57070824,23631
57072163,23635
57073502,23621
57074841,23639
57076180,23631
57077519,23642
57078858,23635
57080197,23631
57081536,23635
57082875,23639
57084214,23643
57085553,23647
57086892,23638
57088231,23639
57089570,23642
57091323,23645
57092663,23657
57094002,23655
57095341,23647
57096680,23664
57098019,23656
57099357,23660
57100697,23659
57102036,23654
57103375,23658
57104714,23657
57106053,23666
57107392,23660
57108731,23639
57110070,23669
57111409,23662
57112748,23674
57114087,23665
57115425,23663
57116765,23672
57118104,23665
57119443,23665
57122046,23675
57123385,23666
57124724,23668
57126064,23665
57127403,23666
57128742,23665
57130081,23670
57131420,23665
57132759,23673
57134098,23670
57135437,23676
57137157,23680
57138498,23677
57139839,23674
57141181,23671
57142522,23675
57143861,23676
57145201,23674
57146540,23676
57147880,23669
57149219,23676
57150559,23673
57151898,23677
57153237,23680
57154576,23667
57155915,23676
57157254,23676
57158594,23669
57159933,23672
57161272,23668
57162611,23674
57163950,23670
57165289,23677
57166629,23671
57167968,23678
57169307,23679
57170646,23674
57171984,23671
57173323,23674
57174663,23676
57176002,23667
57177341,23680
57178680,23672
57180019,23677
57181358,23669
57182696,23673
57184035,23670
57185375,23671
57186714,23677
57188053,23669
57189392,23676
57190731,23676
57192069,23668
57193409,23673
57194748,23671
57196087,23672
57197426,23682
57198765,23657
57200103,23666
57201443,23672
57202782,23664
57204121,23676
57205461,23663
57206800,23662
57208140,23673
57209480,23669
57210819,23668
57212158,23656
57213498,23671
57214837,23671
57216176,23663
57217516,23676
57218855,23653
57220194,23662
57221533,23666
57222872,23659
57224210,23670
57225550,23667
57226889,23651
57228229,23669
57229568,23666
57230908,23664
57232247,23663
57233586,23661
57234925,23666
57236263,23671
57237603,23668
57238942,23679
57240280,23664
57241620,23663
57242959,23676
57244298,23670
57245638,23664
57246977,23660
57248316,23655
57249654,23672
57250994,23660
57252332,23669
57253672,23669
57255011,23654
57257615,23662
57258955,23665
57260294,23674
57261633,23670
57262972,23665
57264311,23662
57265650,23670
57266989,23668
57268328,23665
57269667,23674
57271006,23658
57272344,23670
57273683,23672
57275023,23668
57276362,23666
57277702,23662
57279040,23669
57280380,23667
57281719,23674
57283059,23669
57284398,23670
57285737,23671
57287076,23668
57288415,23665
57289755,23679
57291094,23680
57292433,23668
57294155,23677
57295494,23668
57296838,23679
57298178,23683
57299519,23677
57300859,23676
57302198,23675
57303537,23680
57304875,23667
57306216,23677
57307555,23677
57308894,23672
57310233,23678
57311572,23677
57312911,23678
57314250,23677
57315589,23669
57316927,23677
57318266,23677
57319606,23672
57320945,23683
57322284,23678
57323624,23681
57324964,23688
57326303,23669
57327642,23694
57328980,23689
57330320,23682
57331659,23695
57332999,23688
57334338,23688
57335677,23681
57337016,23688
57338355,23695
57339694,23689
57341033,23691
57342371,23692
57343711,23684
57345050,23696
57346393,23697
57347733,23703
57349072,23700
57350411,23694
57351750,23699
57353089,23691
57354428,23677
57355767,23702
57357106,23696
57358445,23713
57359783,23702
57361122,23702
57362461,23699
57363801,23695
57365140,23700
57366480,23709
57367819,23697
57369158,23697
57370499,23700
57371838,23702
57373177,23710
57374515,23708
57375854,23704
57377194,23708
57378533,23708
57379872,23715
57381211,23714
57382550,23689
57383889,23704
57385227,23704
57386567,23711
57387906,23712
57389245,23707
57390583,23708
57393188,23717
57394528,23719
57395867,23714
57397206,23717
57398545,23720
57399884,23714
57401222,23714
57402562,23710
57403901,23714
57405240,23720
57406579,23715
57407918,23711
57409257,23722
57410596,23717
57411935,23719
57413274,23730
57414613,23712
57415952,23724
57417291,23719
57418630,23715
57419969,23728
57421308,23727
57422647,23725
57423986,23730
57425325,23713
57426664,23727
57428003,23723
57429341,23718
57430681,23736
57432020,23735
57433359,23739
57434697,23732
57436037,23728
57437377,23734
57438717,23733
57440055,23736
57441394,23737
57442734,23714
57444073,23746
57445411,23733
57446751,23737
57448090,23739
57449808,23744
57451149,23746
57452489,23739
57453831,23746
57455172,23749
57456512,23741
57457851,23742
57459190,23753
57460528,23744
57461868,23751
57463208,23744
57464546,23746
57465886,23748
57467225,23756
57468564,23758
57469903,23756
57471242,23723
57472581,23760
57473920,23756
57475261,23750
57476600,23755
57477940,23755
57479279,23753
57480618,23757
57481957,23772
57483296,23752
57484635,23753
57485974,23756
57487313,23747
57488653,23766
57489991,23755
57491330,23739
57492670,23749
57494009,23747
57495348,23758
57496687,23756
57498026,23748
57499365,23746
57500704,23734
57502043,23737
57503381,23738
57504721,23741
57506060,23735
57507398,23726
57508738,23730
57510076,23728
57511416,23726
57512754,23730
57514094,23724
57515433,23722
57516772,23716
57518111,23709
57519450,23709
57520790,23711
57522130,23705
57523468,23702
57524808,23694
57526147,23701
57528752,23692
57530093,23688
57531431,23681
57532771,23678
57534109,23671
57535449,23675
57536787,23674
57538126,23669
57539466,23663
57540805,23673
57542144,23661
57543483,23650
57544822,23655
57546161,23654
57547501,23646
57548840,23640
57550179,23640
57551518,23637
57552857,23625
57554196,23624
57555535,23631
57556874,23626
57558213,23623
57559552,23617
57560891,23608
57562230,23612
57563569,23617
57564908,23608
57566247,23602
57567586,23603
57568924,23599
57570263,23612
57571603,23592
57572942,23596
57574281,23598
57575620,23585
57576959,23592
57578298,23579
57579638,23674
57580978,23591
57582317,23583
57583656,23589
57584995,23580
57586335,23585
57587674,23582
57589013,23575
57590353,23578
57591691,23584
57593031,23581
57594369,23569
57595709,23589
57597047,23574
57598387,23576
57599726,23572
57601065,23576
57602404,23578
57603743,23570
57605082,23585
57606792,23575
57608133,23608
57609475,23576
57610814,23565
57612156,23580
57613495,23578
57614834,23582
57616173,23571
57617512,23563
57618852,23577
57620191,23586
57621530,23577
57622869,23573
57624208,23585
57625546,23574
57626886,23583
57628224,23586
57629564,23584
57630903,23585
57632241,23577
57633581,23590
57634920,23594
57636258,23581
57637598,23595
57638937,23585
57640275,23587
57641615,23599
57642954,23599
57644294,23585
57645633,23589
57646971,23592
57648310,23599
57649650,23593
57650989,23586
57652329,23594
57653668,23603
57655007,23601
57656347,23578
57657686,23595
57659025,23596
57660363,23603
57661703,23607
57664307,23598
57665647,23614
57666986,23597
57668326,23607
57669665,23610
57671005,23611
57672344,23612
57673683,23609
57675022,23616
57676360,23621
57677700,23612
57679039,23621
57680378,23615
57681718,23616
57683058,23620
57684397,23615
57685737,23621
57687076,23617
57688415,23629
57689754,23621
57691093,23622
57692432,23635
57693771,23632
57695110,23625
57696449,23628
57697789,23630
57699127,23639
57700467,23626
57701806,23631
57703145,23630
57704483,23633
57705823,23626
57707162,23636
57708501,23642
57709840,23634
57711178,23642
57712518,23624
57713857,23643
57715195,23634
57716534,23609
57717874,23649
57719213,23632
57720552,23646
57721890,23642
57723231,23650
57724569,23648
57725908,23638
57727248,23644
57728587,23656
57729925,23646
57731265,23652
57732603,23659
57733943,23644
57735282,23656
57736620,23653
57737959,23655
57739299,23660
57740638,23653
57741977,23662
57743316,23661
57744654,23631
57745994,23662
57747333,23663
57748672,23665
57750011,23650
57751350,23663
57752688,23672
57754027,23666
57755368,23660
57756709,23666
57758049,23665
57759388,23669
57760727,23661
57762446,23658
57765033,23676
57766376,23679
57767717,23673
57769057,23665
57770397,23673
57771735,23672
57773073,23678
57774413,23670
57775753,23665
57777092,23666
57778431,23671
57779770,23677
57781109,23671
57782447,23680
57783787,23669
57785126,23664
57786465,23671
57787804,23667
57789143,23674
57790482,23668
57791821,23666
57793160,23670
57794500,23681
57795840,23671
57797179,23667
57798518,23664
57801123,23665
57802463,23676
57803802,23671
57805141,23668
57806480,23674
57807819,23673
57809158,23670
57810498,23675
57811836,23673
57813176,23681
57814514,23680
57815854,23677
57817193,23682
57818532,23670
57819871,23682
57821210,23681
57822549,23674
57823889,23681
57825229,23675
57826568,23685
57827907,23684
57829246,23681
57830584,23684
57831924,23686
57833263,23680
57834603,23683
57835942,23667
57837281,23680
57838620,23684
57839959,23692
57841299,23688
57842638,23675
57843977,23687
57845316,23686
57846655,23690
57847994,23693
57849333,23689
57850672,23689
57852011,23694
57853351,23687
57854690,23696
57856029,23697
57857368,23687
57858710,23701
57860050,23696
57861389,23702
57862728,23692
57864066,23693
57865405,23705
57866745,23700
57868084,23700
57869423,23698
57870761,23695
57872101,23701
57873440,23701
57874778,23699
57876118,23707
57877457,23700
57878796,23710
57880135,23713
57881472,23698
57882812,23712
57884151,23706
57885490,23709
57886828,23711
57888168,23709
57889508,23717
57890847,23707
57892186,23711
57893525,23726
57894865,23710
57896204,23720
57897544,23712
57898883,23697
57900222,23727
57901561,23711
57902900,23726
57904240,23734
57905579,23715
57906918,23722
57908257,23731
57909596,23728
57910935,23736
57912275,23736
57913614,23726
57914952,23732
57916292,23735
57918012,23734
57919354,23734
57920694,23735
57922035,23743
57923375,23736
57924716,23744
57926056,23736
57927395,23706
57928733,23735
57930073,23738
57931412,23748
57932752,23747
57934091,23744
57936693,23746
57938033,23740
57939373,23750
57940712,23761
57942051,23750
57943390,23755
57944728,23752
57946068,23762
57947407,23749
57948746,23756
57950085,23715
57951424,23759
57952763,23753
57954102,23757
57955441,23763
57956779,23759
57958119,23767
57959458,23756
57960797,23766
57962135,23769
57963475,23772
57964814,23760
57966153,23775
57967491,23774
57968831,23772
57970170,23764
57971508,23770
57972848,23777
57974187,23782
57975526,23780
57976864,23774
57978204,23744
57979542,23784
57980882,23777
57982220,23792
57983559,23776
57984899,23786
57986238,23789
57987577,23781
57988915,23780
57990255,23791
57991595,23795
57992933,23798
57994273,23794
57995613,23792
57996953,23799
57998292,23793
57999630,23797
58000969,23790
58002307,23789
58003647,23799
58004987,23797
58006325,23772
58007665,23799
58009004,23805
58010343,23805
58011682,23801
58013021,23810
58014360,23811
58015699,23797
58017038,23821
58018377,23805
58019715,23809
58021055,23811
58022394,23812
58023733,23810
58025073,23817
58026412,23808
58027751,23825
58029089,23818
58030429,23819
58031768,23833
58033107,23816
58034446,23795
58035785,23816
58037125,23811
58038463,23826
58039803,23819
58041142,23830
58042480,23826
58043820,23816
58045159,23829
58046499,23829
58047838,23835
58049177,23829
58050516,23828
58051855,23831
58053194,23833
58054532,23831
58055873,23840
58057212,23838
58058551,23837
58059891,23843
58061230,23842
58062569,23845
58063908,23840
58065247,23840
58066586,23846
58067925,23837
58069265,23848
58071870,23840
58073210,23845
58074550,23840
58076270,23840
58077610,23847
58078952,23848
58080293,23846
58081635,23848
58082974,23830
58084313,23847
58085653,23848
58086992,23837
58088332,23846
58089670,23839
58091010,23849
58092349,23844
58093688,23837
58095028,23828
58096367,23840
58097707,23829
58099046,23850
58100385,23834
58101723,23823
58103062,23829
58104402,23830
58105741,23825
58107079,23827
58108419,23821
58109758,23824
58111097,23813
58112435,23817
58113775,23817
58115114,23840
58116452,23805
58117792,23801
58119131,23805
58120469,23800
58121809,23802
58123148,23795
58124487,23773
58125826,23784
58127165,23788
58128504,23780
58129843,23777
58131182,23768
58132521,23770
58133860,23770
58135199,23768
58136538,23771
58137877,23753
58139216,23752
58140555,23748
58141894,23746
58143233,23834
58144572,23743
58145911,23734
58147252,23738
58148591,23728
58149930,23732
58151269,23735
58152609,23719
58153949,23727
58155288,23716
58156627,23710
58157966,23712
58159305,23715
58160644,23715
58161983,23697
58163322,23690
58164661,23702
58166000,23692
58167339,23700
58168678,23686
58170017,23688
58171356,23685
58172695,23777
58174034,23675
58175373,23669
58176713,23671
58178052,23666
58179390,23672
58180730,23673
58182069,23665
58183408,23658
58184747,23659
58186086,23660
58187426,23664
58188765,23660
58190104,23652
58191443,23660
58192782,23653
58194121,23653
58195460,23660
58196799,23655
58198138,23656
58199477,23642
58200816,23712
58202155,23655
58203493,23656
58204833,23654
58207438,23650
58208778,23650
58210117,23664
58211456,23641
58212795,23647
58214133,23657
58215473,23648
58216812,23652
58218150,23649
58219490,23649
58220830,23653
58222168,23644
58223508,23658
58224847,23646
58226186,23658
58227525,23662
58228864,23649
58230203,23657
58231922,23646
58233262,23658
58234603,23657
58235944,23656
58237286,23654
58238626,23658
58239965,23655
58241303,23661
58242644,23661
58243984,23658
58245323,23659
58246663,23658
58248002,23656
58249341,23660
58250680,23663
58252019,23663
58253358,23663
58254696,23667
58256036,23663
58257375,23662
58258713,23667
58260054,23663
58261394,23661
58262733,23661
58264073,23671
58265412,23670
58266751,23669
58268089,23683
58269428,23675
58270768,23666
58272107,23680
58273446,23675
58274784,23676
58276124,23680
58277463,23677
58278801,23688
58280141,23676
58281480,23658
58282819,23683
58284158,23675
58285499,23687
58286838,23674
58288176,23686
58289515,23683
58290855,23680
58292194,23687
58293533,23686
58294871,23688
58296210,23690
58297550,23685
58298889,23690
58300228,23690
58301567,23691
58302907,23699
58304247,23682
58305585,23693
58306925,23693
58308265,23701
58309603,23690
58310943,23683
58312282,23699
58313621,23698
58314960,23701
58316299,23707
58317637,23698
58318977,23709
58320316,23706
58321655,23702
58322994,23707
58324334,23701
58325673,23703
58327012,23707
58328351,23704
58329690,23708
58331029,23710
58332368,23711
58333707,23716
58335046,23710
58336385,23720
58337723,23719
58339063,23690
58340402,23709
58343007,23724
58344347,23730
58345686,23724
58347025,23717
58348364,23727
58349703,23712
58351042,23717
58352380,23737
58353720,23722
58355059,23735
58356398,23718
58357736,23731
58359076,23732
58360415,23731
58361754,23732
58363093,23732
58364431,23734
58365771,23732
58367110,23738
58368449,23742
58369788,23738
58371128,23745
58372468,23738
58373807,23733
58375146,23747
58376485,23746
58377824,23734
58379163,23743
58380502,23734
58381840,23740
58383180,23743
58384519,23742
58385858,23742
58387197,23755
58388907,23737
58390248,23745
58391590,23742
58392930,23743
58394272,23742
58395611,23751
58396950,23750
58398289,23745
58399628,23718
58400967,23744
58402307,23747
58403646,23754
58404985,23741
58406324,23749
58407662,23750
58409002,23742
58410341,23749
58411680,23750
58413018,23747
58414358,23756
58415697,23750
58417036,23750
58418376,23754
58419716,23761
58421054,23759
58422394,23745
58423732,23752
58425073,23753
58426412,23753
58427751,23744
58429090,23753
58430430,23754
58431769,23746
58433108,23756
58434447,23754
58435786,23754
58437125,23762
58438878,23765
58440218,23782
58441557,23773
58442896,23769
58444235,23776
58445574,23776
58446913,23776
58448252,23774
58449590,23765
58450930,23775
58452269,23776
58453608,23781
58454947,23769
58456286,23760
58457624,23775
58458965,23771
58460305,23784
58461644,23768
58462983,23786
58464322,23789
58465662,23771
58467001,23779
58468340,23788
58469679,23778
58471018,23781
58472357,23788
58473696,23776
58475034,23794
58476374,23783
58478976,23781
58480316,23780
58481656,23786
58482995,23789
58484334,23788
58485674,23791
58487013,23794
58488352,23788
58489691,23789
58491030,23798
58492369,23798
58493707,23791
58495047,23791
58496386,23788
58497725,23793
58499065,23787
58500405,23802
58501744,23799
58503083,23783
58504422,23789
58505762,23795
58507101,23800
58508440,23802
58509779,23803
58511117,23805
58512457,23792
58513796,23808
58515135,23803
58516474,23788
58517813,23809
58519153,23801
58520493,23812
58521832,23806
58523172,23804
58524511,23821
58525850,23805
58527189,23810
58528529,23817
58529868,23812
58531207,23810
58532546,23808
58533884,23813
58535224,23819
58536563,23808
58537902,23809
58539241,23817
58540580,23812
58541919,23828
58543258,23812
58544977,23799
58546317,23819
58547659,23815
58548999,23832
58550340,23825
58551680,23825
58553019,23824
58554357,23818
58555696,23831
58557037,23827
58558376,23827
58559715,23823
58561054,23822
58562393,23831
58563733,23834
58565072,23806
58566411,23824
58567749,23821
58569089,23838
58570427,23833
58571767,23838
58573105,23849
58574445,23837
58575784,23839
58577123,23845
58578461,23846
58579801,23850
58581140,23831
58582479,23849
58583819,23849
58585158,23845
58586498,23848
58587837,23830
58589176,23848
58590515,23842
58591854,23850
58593192,23853
58594532,23848
58595871,23854
58597210,23852
58598549,23849
58599888,23858
58601228,23854
58602567,23847
58603906,23847
58605245,23839
58606584,23855
58607923,23856
58609262,23849
58610601,23856
58611941,23841
58614545,23861
58615885,23854
58617225,23856
58618564,23860
58619903,23855
58621242,23873
58622582,23855
58623920,23850
58625259,23871
58626600,23862
58627939,23866
58629277,23865
58630616,23864
58631956,23870
58633295,23868
58634634,23856
58635973,23870
58637312,23868
58638652,23863
58639991,23874
58641331,23874
58642670,23876
58644010,23875
58645348,23873
58646687,23880
58648027,23872
58649366,23875
58650706,23881
58652045,23875
58653385,23849
58654724,23871
58656062,23874
58657401,23882
58658741,23875
58660079,23886
58661419,23881
58662758,23887
58664097,23885
58665436,23885
58666775,23883
58668115,23887
58669454,23884
58670793,23884
58672132,23894
58673471,23887
58674810,23901
58676149,23882
58677488,23882
58678827,23896
58680166,23898
58681505,23892
58682845,23888
58684184,23888
58685523,23881
58686862,23899
58688201,23893
58689539,23883
58690879,23885
58692217,23882
58693557,23891
58694896,23899
58696235,23892
58697575,23890
58698914,23894
58700631,23889
58701973,23901
58703313,23887
58704655,23889
58705996,23883
58707337,23880
58708676,23884
58710016,23889
58711354,23887
58712694,23887
58714034,23878
58715372,23885
58716712,23874
58718050,23878
58719390,23878
58720729,23869
58722068,23880
58723407,23861
58724745,23858
58726085,23875
58727424,23855
58728763,23862
58730102,23849
58731441,23893
58732780,23853
58734119,23840
58735458,23853
58736797,23824
58738135,23835
58739475,23832
58740815,23816
58742154,23830
58743493,23836
58744833,23830
58746171,23825
58747511,23813
58750115,23809
58751455,23810
58752795,23799
58754134,23805
58755474,23797
58756813,23799
58758152,23796
58759491,23794
58760830,23874
58762169,23780
58763507,23786
58764846,23782
58766185,23775
58767524,23773
58768863,23774
58770202,23762
58771541,23772
58772881,23771
58774221,23759
58775559,23752
58776898,23759
58778238,23750
58779577,23757
58780916,23747
58782255,23749
58783594,23744
58784933,23730
58786272,23738
58787611,23745
58788950,23730
58790289,23735
58791628,23729
58792967,23731
58794306,23722
58795645,23730
58796984,23729
58798323,23726
58799661,23723
58801001,23723
58802340,23715
58803678,23718
58805018,23707
58806357,23711
58807696,23722
58809035,23717
58810374,23716
58811714,23706
58813052,23713
58814392,23713
58815731,23706
58817070,23708
58818409,23705
58819748,23759
58821087,23706
58822426,23704
58823765,23715
58825104,23706
58826443,23711
58827782,23714
58829121,23695
58830460,23702
58831800,23702
58833139,23705
58834478,23711
58835817,23707
58837157,23703
58838496,23707
58839836,23705
58841175,23711
58842514,23702
58843852,23706
58845192,23711
58846531,23713
58847870,23713
58849208,23700
58850548,23711
58851888,23709
58853227,23702
58854566,23704
58855905,23711
58857625,23705
58858965,23703
58860304,23702
58861646,23719
58862987,23717
58864327,23703
58865666,23718
58867006,23705
58868345,23711
58869685,23712
58871024,23710
58872363,23718
58873702,23715
58875041,23732
58876380,23721
58877719,23711
58879058,23727
58880398,23722
58881737,23720
58883077,23716
58885682,23718
58887022,23725
58888361,23724
58889701,23729
58891040,23717
58892379,23717
58893718,23720
58895056,23721
58896395,23726
58897735,23733
58899074,23704
58900412,23736
58901752,23727
58903091,23729
58904430,23735
58905769,23721
58907108,23734
58908447,23726
58909786,23739
58911125,23738
58912464,23731
58913803,23731
58915142,23752
58916482,23730
58917821,23734
58919160,23736
58920499,23737
58921838,23747
58923177,23735
58924516,23743
58925855,23752
58927193,23739
58928533,23718
58929873,23745
58931212,23739
58932551,23751
58933889,23747
58935230,23752
58936569,23761
58937908,23744
58939247,23757
58940586,23757
58941925,23757
58943263,23750
58944603,23755
58945942,23757
58947281,23756
58948620,23763
58949959,23768
58951298,23748
58952636,23766
58953976,23752
58955315,23758
58956654,23768
58957992,23757
58959332,23765
58960671,23751
58962010,23762
58963349,23766
58964687,23765
58966027,23761
58967366,23769
58968704,23765
58970043,23768
58971382,23767
58972722,23770
58974060,23767
58975400,23757
58976739,23771
58978078,23768
58979416,23770
58980757,23773
58982097,23763
58983436,23769
58984775,23765
58986113,23750
58987453,23775
58988791,23772
58990130,23766
58991470,23774
58992809,23766
58994148,23776
58995488,23766
58996827,23777
58998167,23771
58999506,23769
59000845,23768
59002183,23775
59003522,23770
59004862,23779
59006201,23777
59007540,23779
59008880,23775
59010220,23779
59011560,23780
59013278,23770
59014620,23780
59015960,23768
59017302,23770
59018644,23770
59021249,23768
59022589,23776
59023927,23779
59025267,23772
59026605,23765
59027945,23773
59029283,23777
59030624,23771
59031963,23770
59033301,23786
59034640,23769
59035980,23777
59037318,23771
59038658,23771
59039997,23776
59041336,23780
59042675,23783
59044014,23768
59045353,23768
59046693,23781
59048031,23774
59049371,23779
59050710,23781
59052048,23779
59053388,23777
59054727,23781
59056066,23778
59057406,23788
59058745,23770
59060084,23770
59061423,23777
59062762,23776
59064101,23786
59065440,23779
59066778,23779
59068118,23782
59069457,23777
59070797,23784
59072137,23774
59073475,23776
59074815,23787
59076154,23778
59077493,23782
59078831,23787
59080171,23786
59081509,23782
59082849,23772
59084188,23778
59085528,23787
59086868,23782
59088206,23785
59089546,23784
59090886,23789
59092225,23784
59093564,23785
59094903,23779
59096242,23784
59097581,23789
59098921,23794
59100260,23784
59101599,23795
59102937,23796
59104276,23790
59105616,23797
59106956,23795
59108295,23787
59109634,23792
59110973,23784
59112312,23794
59113651,23797
59114990,23789
59116328,23806
59119325,23826
59120664,23825
59122004,23828
59123344,23828
59124683,23827
59126023,23838
59127362,23834
59128701,23823
59130040,23831
59131379,23828
59132718,23798
59134056,23830
59135396,23834
59136735,23836
59138076,23832
59139416,23839
59140755,23842
59142094,23835
59143433,23839
59144772,23847
59146111,23840
59147450,23850
59148790,23843
59150129,23848
59151468,23854
59152806,23853
59154146,23856
59155485,23847
59158091,23852
59159430,23850
59160769,23855
59162108,23858
59163447,23856
59164786,23847
59166125,23861
59167465,23851
59168804,23861
59170524,23861
59171865,23871
59173207,23862
59174549,23856
59175890,23865
59177230,23871
59178569,23852
59179908,23869
59181247,23860
59182586,23872
59183926,23866
59185265,23842
59186604,23878
59187943,23869
59189281,23883
59190620,23874
59191960,23874
59193299,23876
59194637,23870
59195977,23871
59197316,23877
59198655,23876
59199993,23881
59201333,23879
59202672,23867
59204010,23888
59205350,23884
59206689,23878
59208028,23888
59209367,23880
59210706,23895
59212045,23887
59213384,23861
59214723,23889
59216062,23885
59217401,23895
59218740,23879
59220079,23893
59221418,23887
59222757,23881
59224096,23891
59225434,23892
59226773,23891
59228113,23891
59229452,23886
59230791,23896
59232129,23896
59233469,23895
59234807,23901
59236147,23880
59237486,23897
59238825,23891
59240164,23905
59241503,23902
59242842,23888
59244181,23896
59245520,23895
59246861,23900
59248200,23892
59249539,23903
59250878,23896
59252217,23889
59253556,23900
59254895,23911
59256234,23900
59257572,23900
59258912,23909
59260251,23906
59261590,23908
59262929,23901
59264268,23903
59265606,23909
59266946,23904
59268284,23912
59269624,23905
59270963,23891
59272302,23915
59273641,23915
59274980,23915
59276319,23903
59277657,23919
59278997,23916
59280336,23910
59281675,23909
59283014,23919
59284353,23919
59285692,23915
59287030,23919
59288370,23916
59289709,23925
59291048,23920
59293650,23919
59294990,23918
59296330,23913
59297670,23922
59299009,23920
59300348,23900
59301687,23915
59303026,23923
59304364,23921
59305704,23926
59307044,23923
59308383,23929
59309723,23930
59311062,23921
59312401,23930
59313740,23929
59315079,23934
59316418,23928
59317758,23930
59319097,23932
59320436,23938
59321775,23950
59323114,23941
59324452,23931
59326174,23930
59327515,23933
59328855,23944
59330197,23937
59331537,23919
59332879,23936
59334218,23935
59335557,23934
59336896,23931
59338235,23939
59339575,23940
59340913,23935
59342252,23935
59343592,23935
59344931,23930
59346269,23931
59347609,23925
59348948,23931
59350287,23921
59351626,23929
59352964,23934
59354304,23911
59355642,23925
59356981,23916
59358321,23913
59359660,23914
59360999,23905
59362338,23908
59363678,23913
59365017,23904
59366355,23906
59367695,23905
59369034,23894
59370372,23901
59371711,23888
59373051,23889
59374390,23881
59375728,23876
59377068,23881
59378407,23871
59379746,23931
59381085,23868
59382424,23871
59383763,23867
59385102,23861
59386441,23854
59387780,23860
59389119,23848
59390457,23845
59391797,23849
59393136,23842
59394478,23844
59395818,23837
59397157,23832
59398496,23826
59399835,23831
59401174,23826
59402514,23809
59403855,23819
59405193,23810
59406533,23812
59407872,23815
59409211,23805
59410550,23808
59411889,23797
59413228,23791
59414567,23800
59415906,23792
59417245,23782
59418583,23784
59419923,23779
59421262,23795
59422601,23778
59423940,23778
59425279,23780
59426619,23767
59429223,23773
59430562,23768
59431901,23766
59433239,23772
59434579,23760
59435918,23764
59437256,23762
59438596,23844
59439935,23757
59441274,23750
59442612,23749
59443952,23763
59445291,23745
59446630,23750
59447969,23744
59449308,23746
59450647,23751
59451987,23752
59453326,23745
59454665,23750
59456004,23754
59457343,23739
59458682,23755
59460021,23747
59461360,23752
59462698,23745
59464038,23738
59465377,23756
59466716,23745
59468054,23778
59469394,23740
59470732,23741
59472072,23750
59473411,23746
59474750,23747
59476089,23753
59477428,23744
59478767,23745
59480106,23745
59481446,23740
59483165,23749
59484506,23752
59485847,23752
59487190,23746
59488532,23743
59489872,23761
59491211,23748
59492550,23751
59493890,23760
59495229,23754
59496567,23760
59497907,23753
59499246,23767
59500585,23751
59501924,23750
59503263,23757
59504602,23760
59505941,23752
59507280,23767
59508619,23758
59509958,23760
59511297,23751
59512636,23760
59513975,23766
59515314,23766
59516654,23769
59517994,23755
59519334,23779
59520673,23767
59522013,23764
59523353,23772
59524692,23771
59526031,23767
59527369,23765
59528709,23773
59530048,23775
59531387,23775
59532726,23764
59534066,23776
59535405,23771
59536744,23775
59538083,23774
59539422,23777
59540761,23777
59542100,23776
59543438,23780
59544778,23781
59546116,23779
59547455,23789
59548795,23775
59550134,23783
59551473,23776
59552812,23785
59554151,23785
59555490,23787
59556828,23794
59558168,23794
59559508,23781
59560847,23783
59562186,23800
59564791,23784
59566131,23792
59567470,23790
59568808,23792
59570148,23800
59571486,23791
59572826,23803
59574165,23794
59575504,23775
59576843,23805
59578182,23795
59579521,23798
59580860,23799
59582199,23795
59583538,23811
59584877,23802
59586216,23809
59587555,23806
59588894,23800
59590233,23811
59591572,23808
59592911,23812
59594250,23804
59595589,23804
59596928,23807
59598267,23817
59599606,23809
59600945,23808
59602284,23814
59603623,23812
59604961,23819
59606301,23803
59607640,23815
59608979,23817
59610318,23815
59611657,23814
59612996,23814
59614336,23811
59615675,23811
59617014,23809
59618352,23815
59619692,23819
59621031,23819
59622370,23826
59623709,23817
59625049,23815
59626388,23815
59627727,23809
59629066,23821
59630405,23812
59631743,23824
59633083,23813
59634422,23808
59635761,23817
59637100,23818
59638818,23817
59640159,23810
59641500,23811
59642843,23821
59644182,23807
59645524,23821
59646863,23822
59648203,23810
59649543,23819
59650882,23814
59652222,23811
59653560,23832
59654900,23819
59656239,23821
59657578,23815
59658917,23822
59660255,23820
59661595,23814
59662933,23819
59664273,23820
59665612,23814
59666951,23830
59668290,23814
59669629,23815
59670969,23817
59672308,23811
59673647,23818
59674986,23819
59676325,23822
59677664,23812
59679003,23816
59680342,23819
59681680,23815
59683021,23810
59684359,23821
59685699,23808
59687039,23819
59688378,23816
59689718,23819
59691057,23821
59692396,23815
59693735,23816
59695075,23813
59696414,23821
59697753,23823
59700357,23816
59701696,23812
59703035,23821
59704374,23815
59705713,23826
59707053,23815
59708392,23828
59709731,23817
59711071,23817
59712411,23829
59713750,23811
59715088,23822
59716429,23813
59717769,23816
59719107,23822
59720447,23815
59721786,23825
59723124,23822
59724464,23816
59725803,23837
59727142,23817
59728481,23822
59729820,23827
59731159,23826
59732498,23815
59733837,23828
59735176,23825
59736515,23827
59737853,23823
59739193,23831
59740532,23836
59741871,23833
59743210,23816
59744549,23825
59745888,23823
59747227,23830
59748566,23826
59749905,23831
59751243,23842
59752583,23833
59753922,23834
59755261,23833
59756600,23833
59757939,23841
59759278,23826
59760616,23832
59761955,23844
59763294,23831
59764633,23848
59765972,23843
59767310,23846
59768650,23837
59769989,23848
59771328,23843
59772667,23836
59774006,23842
59775345,23846
59776683,23841
59778024,23844
59779364,23849
59780703,23847
59782042,23851
59783381,23853
59784719,23854
59786059,23854
59787398,23852
59788737,23859
59790490,23877
59791830,23890
59793169,23883
59794886,23894
59796228,23876
59797568,23888
59798910,23881
59800251,23866
59801591,23890
59802930,23887
59804270,23892
59805609,23890
59806948,23895
59808288,23883
59809627,23882
59810967,23886
59812306,23902
59813644,23886
59814983,23891
59816322,23896
59817661,23886
59819000,23900
59820338,23899
59821678,23892
59823017,23899
59824356,23889
59825694,23898
59827033,23904
59828372,23889
59829712,23901
59831050,23904
59832390,23906
59833729,23896
59836333,23905
59837673,23910
59839012,23900
59840351,23901
59841690,23909
59843029,23909
59844369,23916
59845708,23909
59847047,23905
59848386,23918
59849725,23912
59851064,23905
59852403,23909
59853742,23899
59855081,23919
59856420,23915
59857759,23916
59859098,23917
59860437,23902
59861776,23925
59863115,23906
59864454,23919
59865793,23912
59867133,23916
59868473,23920
59869812,23918
59871150,23919
59872489,23926
59873829,23919
59875169,23922
59876508,23926
59877847,23921
59879186,23922
59880525,23929
59881863,23923
59883203,23933
59884542,23924
59885881,23928
59887220,23921
59888558,23909
59889898,23934
59891237,23929
59892576,23934
59893915,23930
59895254,23924
59896593,23934
59897932,23931
59899270,23932
59900610,23938
59901950,23927
59903289,23940
59904627,23937
59905967,23945
59907307,23944
59908646,23935
59909985,23930
59911324,23936
59912662,23929
59914002,23938
59915341,23939
59916680,23919
59918019,23937
59919358,23942
59920698,23946
59922037,23935
59923376,23941
59924715,23944
59926054,23933
59927393,23942
59928732,23950
59930071,23942
59931410,23951
59932748,23952
59934088,23943
59935427,23951
59936766,23936
59938105,23956
59939443,23948
59940783,23944
59942122,23958
59943461,23961
59944800,23959
59946139,23942
59947477,23953
59948817,23959
59950156,23953
59951877,23962
59953217,23959
59954558,23955
59955899,23955
59957240,23955
59958580,23961
59959918,23958
59961258,23962
59962597,23954
59963937,23963
59965275,23960
59966615,23955
59967954,23963
59969293,23953
59971899,23958
59973239,23957
59974578,23956
59975917,23945
59977256,23954
59978595,23957
59979933,23962
59981273,23952
59982612,23954
59983951,23952
59985289,23954
59986629,23948
59987967,23950
59989307,23948
59990647,23944
59991986,23944
59993324,23940
59994663,23940
59996003,23928
59997342,23959
59998681,23936
60000020,23928
60001359,23929
60002697,23924
60004037,23927
60005376,23926
60006715,23915
60008053,23910
60009393,23921
60010732,23911
60012071,23903
60013410,23901
60014749,23900
60016088,23903
60017426,23892
60018766,23889
60020106,23894
60021445,23889
60022784,23891
60024124,23882
60025463,23954
60026802,23873
60028141,23863
60029481,23877
60030820,23865
60032159,23858
60033498,23863
60034838,23854
60036177,23855
60037516,23852
60038855,23845
60040194,23845
60041532,23834
60042871,23834
60044212,23837
60045551,23840
60046890,23833
60048229,23829
60049568,23818
60050908,23829
60052247,23832
60053586,23911
60054924,23811
60056264,23819
60057603,23820
60058942,23806
60060281,23812
60061620,23814
60062959,23799
60064298,23805
60065637,23805
60066976,23808
60068315,23798
60069654,23794
60070992,23789
60072332,23807
60073671,23797
60075010,23795
60076349,23786
60077688,23782
60079027,23789
60080366,23784
60081704,23845
60083044,23789
60084383,23789
60085721,23790
60087061,23787
60088400,23788
60089739,23792
60091078,23772
60092417,23789
60093756,23790
60095095,23794
60096434,23794
60097773,23784
60099112,23789
60100451,23782
60101789,23779
60103128,23784
60104468,23792
60107073,23778
60108791,23783
60110132,23789
60111473,23808
60112816,23784
60114157,23785
60115497,23783
60116836,23788
60118175,23787
60119514,23790
60120853,23780
60122193,23795
60123532,23791
60124871,23797
60126210,23793
60127549,23789
60128888,23788
60130227,23794
60131566,23794
60132905,23793
60134244,23786
60135583,23797
60136923,23798
60138263,23798
60139601,23800
60140941,23801
60142280,23798
60143619,23804
60144958,23799
60146297,23808
60147636,23817
60148975,23804
60150314,23809
60151652,23808
60152992,23806
60154332,23804
60155670,23804
60157010,23804
60158349,23805
60159687,23813
60161026,23806
60162366,23790
60163705,23814
60165044,23813
60166384,23819
60167723,23821
60169062,23823
60170401,23821
60171740,23817
60173079,23826
60174418,23827
60175757,23820
60177096,23817
60178434,23821
60179775,23820
60181114,23825
60182453,23827
60183792,23830
60185132,23826
60186471,23829
60187811,23834
60189150,23825
60190489,23817
60191828,23838
60193167,23829
60194506,23841
60195845,23831
60197184,23844
60198524,23844
60199863,23835
60201202,23841
60202541,23843
60203880,23845
60205219,23846
60206558,23844
60207897,23841
60209236,23855
60210575,23849
60211915,23851
60213254,23843
60214593,23842
60215931,23856
60217270,23856
60218610,23820
60219949,23856
60221288,23844
60222627,23860
60223966,23852
60225305,23857
60226645,23856
60227984,23859
60229323,23856
60230662,23860
60232001,23863
60233339,23869
60234679,23866
60236018,23869
60237358,23862
60238698,23864
60240038,23865
60242643,23860
60243981,23874
60245320,23864
60246658,23875
60247998,23865
60249337,23860
60250676,23872
60252015,23864
60253354,23866
60254694,23870
60256033,23864
60257372,23869
60258711,23868
60260050,23862
60261389,23871
60262728,23873
60264067,23869
60265777,23883
60267118,23864
60268460,23873
60269800,23860
60271143,23872
60272482,23868
60273821,23869
60275160,23864
60276499,23867
60277839,23871
60279178,23866
60280516,23871
60281856,23870
60283195,23884
60284534,23871
60285873,23867
60287212,23876
60288550,23864
60289889,23869
60291229,23870
60292569,23867
60293908,23867
60295247,23866
60296586,23867
60297925,23872
60299264,23864
60300603,23856
60301942,23856
60303281,23871
60304620,23858
60305959,23865
60307298,23865
60308636,23853
60309976,23867
60311315,23854
60312654,23859
60313993,23863
60315332,23850
60316671,23867
60318009,23859
60319349,23866
60320688,23856
60322027,23858
60323366,23868
60324705,23863
60326043,23872
60327383,23861
60328723,23854
60330062,23875
60331400,23859
60332740,23864
60334079,23864
60335418,23864
60336758,23864
60338097,23862
60339436,23862
60340775,23864
60342115,23865
60343454,23861
60344793,23870
60346132,23869
60347471,23871
60348810,23873
60350149,23860
60351488,23867
60352827,23861
60354166,23871
60355504,23866
60356844,23863
60358182,23867
60359522,23869
60360861,23864
60362200,23867
60363540,23869
60364879,23870
60366218,23856
60367557,23870
60368896,23872
60370235,23860
60371573,23871
60372912,23876
60374252,23868
60375591,23873
60378195,23871
60379536,23872
60380874,23870
60382214,23869
60383553,23879
60384892,23867
60386231,23865
60387570,23871
60388908,23867
60390248,23881
60391587,23870
60392926,23881
60394266,23884
60395605,23870
60396944,23883
60398282,23885
60399622,23884
60400961,23894
60402299,23874
60403638,23879
60404978,23882
60406317,23880
60407656,23882
60408996,23873
60410335,23881
60411675,23887
60413014,23885
60414353,23885
60415692,23887
60417031,23881
60418372,23892
60419712,23888
60421430,23894
60422771,23892
60424111,23900
60425454,23886
60426794,23889
60428134,23886
60429473,23905
60430812,23898
60432151,23896
60433490,23894
60434830,23881
60436169,23897
60437507,23900
60438847,23895
60440186,23915
60441525,23895
60442864,23904
60444203,23903
60445542,23874
60446881,23902
60448220,23901
60449559,23914
60450897,23901
60452237,23903
60453576,23910
60454915,23905
60456254,23914
60457593,23910
60458932,23905
60461515,23928
60462856,23927
60464195,23935
60465534,23937
60466873,23935
60468212,23937
60469551,23928
60470890,23940
60472229,23946
60473569,23942
60474908,23938
60476246,23944
60477585,23934
60478924,23938
60480263,23940
60481602,23946
60482942,23921
60484282,23925
60485621,23938
60486959,23949
60488299,23942
60489637,23947
60490977,23950
60492317,23939
60493656,23943
60494995,23943
60496334,23943
60497675,23954
60499014,23939
60500353,23946
60501691,23954
60503031,23946
60504371,23960
60505711,23944
60507049,23953
60508389,23953
60509728,23951
60511067,23956
60512406,23948
60515010,23955
60516350,23954
60517689,23948
60519027,23960
60520367,23960
60521706,23956
60523045,23954
60524384,23952
60525723,23954
60527062,23969
60528401,23962
60529739,23943
60531078,23958
60532418,23956
60533757,23963
60535096,23955
60536435,23955
60537774,23956
60539113,23953
60540452,23971
60541792,23961
60543131,23939
60544470,23962
60545809,23955
60547148,23963
60548487,23970
60549827,23966
60551166,23959
60552505,23960
60553845,23958
60555185,23965
60556523,23967
60557863,23962
60559202,23969
60560541,23959
60561880,23973
60563219,23964
60564558,23962
60565897,23974
60567237,23962
60568576,23978
60569915,23961
60571254,23962
60572593,23966
60573932,23967
60575271,23970
60576992,23966
60578333,23956
60579673,23967
60581015,23960
60582355,23959
60583697,23974
60585036,23965
60586375,23960
60587714,23958
60589053,23958
60590393,23965
60591732,23970
60593071,23960
60594411,23949
60595750,23955
60597090,23956
60598429,23948
60599768,23942
60601106,23940
60602446,23954
60603785,23945
60605124,23942
60606464,23936
60607803,23948
60609143,23930
60610482,23935
60611821,23923
60613160,23928
60614499,23921
60615838,23919
60617176,23923
60618516,23914
60619855,23966
60621193,23917
60622533,23899
60623872,23903
60625211,23894
60626551,23902
60627890,23899
60629230,23887
60630569,23877
60631909,23893
60633248,23881
60634587,23882
60635926,23879
60637265,23864
60638604,23871
60639943,23863
60641282,23868
60642621,23860
60643959,23844
60645299,23859
60646638,23853
60647977,23942
60650582,23843
60651923,23837
60653263,23832
60654603,23832
60655944,23837
60657282,23838
60658622,23814
60659961,23823
60661300,23822
60662639,23817
60663979,23818
60665318,23819
60666657,23804
60667995,23807
60669335,23801
60670674,23798
60672013,23801
60673352,23799
60674692,23798
60676031,23798
60677370,23791
60678709,23791
60680047,23778
60681387,23782
60682727,23778
60684066,23776
60685405,23778
60686744,23774
60688083,23780
60689424,23775
60690762,23774
60692102,23778
60693440,23775
60694779,23771
60696118,23774
60697458,23774
60698797,23770
60700136,23765
60701475,23759
60702814,23768
60704153,23770
60705492,23773
60706831,23773
60708169,23819
60709509,23766
60710848,23758
60712186,23766
60713526,23765
60714864,23767
60716204,23754
60717543,23757
60718882,23772
60720221,23767
60721560,23766
60722898,23763
60724238,23764
60725577,23760
60726915,23762
60728255,23761
60729594,23763
60730932,23773
60732272,23764
60733992,23763
60735333,23767
60736674,23775
60738015,23765
60739357,23759
60740697,23764
60742035,23767
60743375,23770
60744714,23778
60746054,23753
60747392,23760
60748732,23783
60750071,23778
60751410,23758
60752749,23769
60754088,23776
60755427,23777
60756766,23765
60758105,23782
60759444,23777
60760783,23775
60762122,23777
60763461,23779
60764801,23775
60766139,23777
60767479,23773
60768817,23778
60770157,23788
60771496,23786
60772836,23789
60774175,23784
60775514,23786
60776854,23780
60778193,23793
60779532,23791
60780870,23789
60782210,23784
60783549,23793
60786153,23767
60787494,23787
60788833,23788
60790172,23800
60791511,23792
60792850,23790
60794189,23805
60795528,23789
60796867,23799
60798206,23794
60799544,23796
60800884,23811
60802224,23798
60803564,23795
60804903,23799
60806243,23807
60807581,23807
60808921,23812
60810259,23790
60811600,23809
60812939,23802
60814278,23807
60815618,23810
60816957,23801
60818296,23820
60819635,23809
60820974,23814
60822313,23814
60823652,23811
60824991,23808
60826330,23811
60827670,23811
60829009,23818
60830348,23819
60831687,23811
60833027,23814
60834366,23816
60835705,23821
60837043,23817
60838383,23820
60839721,23822
60841061,23816
60842399,23827
60843739,23819
60845077,23798
60846417,23825
60847756,23822
60849095,23827
60850434,23821
60851773,23819
60853111,23817
60854451,23824
60855790,23814
60857128,23825
60858468,23822
60859807,23828
60861146,23831
60862485,23821
60863824,23829
60865163,23826
60866501,23828
60867841,23823
60869180,23815
60870520,23817
60871860,23820
60873199,23819
60874538,23825
60875877,23817
60877216,23823
60878555,23823
60879894,23824
60881233,23818
60882573,23817
60883911,23824
60885251,23823
60886590,23822
60887929,23822
60889647,23817
60890988,23819
60892328,23826
60893670,23824
60895011,23827
60896352,23813
60897691,23823
60899030,23826
60900368,23814
60901708,23822
60903047,23818
60904386,23822
60905726,23822
60907065,23818
60908404,23837
60909742,23825
60911082,23821
60912421,23823
60913760,23827
60915098,23824
60916437,23820
60917777,23825
60919116,23827
60921721,23818
60923061,23828
60924400,23816
60925739,23821
60927078,23822
60928417,23817
60929756,23820
60931096,23818
60932434,23809
60933774,23817
60935112,23817
60936451,23824
60937791,23815
60939130,23817
60940469,23825
60941808,23821
60943147,23824
60944486,23816
60945825,23812
60947164,23819
60948503,23808
60949842,23816
60951181,23820
60952520,23814
60953858,23825
60955198,23820
60956536,23821
60957876,23826
60959215,23823
60960554,23813
60961893,23826
60963234,23812
60964573,23812
60965911,23827
60967251,23815
60968590,23813
60969929,23825
60971268,23823
60972607,23835
60973946,23825
60975285,23834
60976625,23819
60977964,23822
60979302,23824
60980642,23814
60981981,23829
60983320,23823
60984659,23833
60985998,23820
60987336,23822
60988676,23826
60990015,23825
60991354,23832
60992693,23826
60994032,23826
60995371,23831
60996710,23827
60998049,23818
60999387,23831
61000727,23816
61002066,23830
61003405,23825
61004744,23818
61006082,23832
61007422,23816
61008761,23832
61010101,23830
61011440,23813
61012779,23833
61014118,23824
61015457,23834
61016796,23824
61018135,23823
61019474,23838
61020813,23827
61022152,23833
61023491,23837
61024830,23834
61026169,23828
61027508,23834
61028847,23836
61030186,23837
61031525,23833
61032864,23835
61034203,23834
61035541,23824
61036881,23832
61038220,23839
61039559,23838
61040899,23837
61042238,23839
61043576,23842
61044916,23837
61046636,23852
61047976,23839
61049317,23833
61050659,23839
61052000,23835
61053340,23839
61054679,23847
61057282,23843
61058622,23839
61059963,23832
61061302,23840
61062641,23841
61063980,23849
61065319,23846
61066658,23841
61067996,23852
61069336,23846
61070674,23828
61072014,23851
61073353,23846
61074692,23858
61076031,23851
61077371,23844
61078710,23848
61080049,23847
61081388,23853
61082727,23857
61084066,23854
61085405,23849
61086744,23844
61088083,23861
61089422,23859
61090761,23852
61092100,23852
61093438,23853
61094778,23856
61096117,23853
61097455,23856
61098795,23860
61100135,23859
61101474,23849
61102813,23847
61104152,23858
61105490,23859
61106830,23856
61108169,23853
61109508,23857
61110847,23852
61112185,23859
61113525,23855
61114863,23842
61116203,23858
61117542,23855
61118881,23855
61120221,23860
61121560,23848
61122901,23862
61124240,23853
61125580,23851
61126919,23859
61128258,23863
61129597,23856
61130935,23852
61132275,23854
61133614,23859
61134953,23856
61136291,23860
61137630,23863
61138970,23860
61140723,23859
61142063,23867
61143402,23876
61144741,23859
61146080,23870
61147418,23867
61148758,23871
61150097,23879
61151435,23858
61152775,23868
61154114,23865
61155452,23869
61156793,23875
61158132,23865
61159471,23876
61160810,23864
61162149,23877
61163488,23876
61164827,23872
61166166,23871
61167505,23873
61168844,23875
61170183,23877
61171523,23872
61172862,23871
61174200,23869
61175540,23877
61176879,23879
61178218,23872
61179557,23882
61180896,23872
61182235,23871
61183573,23884
61184913,23880
61186252,23876
61187592,23871
61188931,23873
61190269,23884
61192873,23873
61194212,23878
61195551,23882
61196891,23873
61198231,23873
61199570,23868
61200909,23881
61202248,23878
61203958,23870
61205299,23866
61206641,23871
61207981,23864
61209323,23869
61210661,23871
61212001,23865
61213340,23855
61214679,23855
61216019,23854
61217357,23853
61218697,23854
61220037,23844
61221376,23846
61222715,23851
61224054,23841
61225392,23835
61226731,23834
61228070,23820
61229409,23818
61230748,23818
61232087,23815
61233426,23823
61234765,23807
61236104,23811
61237443,23812
61238781,23882
61240121,23802
61241460,23787
61242799,23804
61244137,23792
61245477,23800
61246816,23798
61248155,23767
61249493,23778
61250833,23782
61252171,23772
61253510,23781
61254850,23759
61256190,23770
61257529,23762
61258868,23755
61260208,23759
61261547,23753
61262886,23749
61264225,23747
61265564,23740
61266903,23746
61268242,23730
61269581,23740
61270920,23731
61272259,23729
61273598,23730
61274939,23725
61276278,23712
61277618,23711
61278957,23714
61280298,23718
61281637,23711
61282976,23704
61284314,23710
61285654,23708
61286992,23708
61288332,23698
61289671,23696
61291010,23703
61292350,23693
61293689,23694
61295027,23697
61296367,23781
61297706,23701
61299045,23691
61300383,23687
61301722,23682
61303061,23692
61304400,23683
61305738,23686
61307078,23681
61308417,23684
61309756,23681
61311095,23675
61312433,23680
61313773,23666
61315113,23684
61316452,23681
61317791,23679
61319130,23678
61320470,23673
61321809,23683
61323147,23684
61324487,23711
61325826,23678
61328431,23687
61329771,23677
61331111,23682
61332449,23686
61333788,23686
61335128,23676
61336467,23686
61337806,23691
61339145,23680
61340483,23687
61341823,23690
61343162,23684
61344501,23693
61345840,23684
61347179,23689
61348518,23696
61349857,23687
61351196,23696
61352535,23694
61353874,23688
61355213,23700
61356552,23693
61357891,23702
61359609,23695
61360951,23698
61362292,23699
61363635,23698
61364977,23696
61366317,23698
61367656,23704
61368995,23707
61370335,23708
61371674,23704
61373014,23710
61374353,23704
61375692,23704
61377031,23706
61378370,23721
61379710,23719
61381049,23715
61382388,23716
61383727,23712
61385066,23715
61386406,23710
61387744,23713
61389084,23723
61390424,23717
61391763,23720
61393102,23726
61394441,23714
61395780,23729
61397119,23728
61398458,23730
61399797,23729
61401136,23721
61402476,23735
61403815,23724
61405154,23699
61406493,23736
61407832,23730
61409171,23730
61410510,23733
61411849,23735
61413188,23737
61414527,23743
61415865,23738
61417205,23744
61418544,23735
61419883,23729
61421222,23744
61422562,23731
61423900,23745
61425239,23745
61426579,23738
61427918,23750
61429258,23738
61430598,23749
61431938,23754
61433277,23717
61434616,23761
61435956,23749
61437296,23749
61438635,23754
61439974,23748
61441313,23760
61442655,23751
61443994,23759
61445333,23763
61446672,23750
61448011,23764
61449350,23758
61450691,23759
61452029,23762
61453369,23765
61454708,23764
61456047,23765
61457385,23766
61458725,23766
61460064,23765
61461403,23735
61464007,23772
61465347,23761
61466687,23769
61468026,23763
61469366,23767
61470705,23781
61472044,23768
61473382,23768
61474722,23783
61476061,23773
61477400,23775
61478739,23778
61480077,23769
61481417,23778
61482756,23769
61484094,23779
61485434,23783
61486773,23766
61488111,23771
61489451,23781
61490790,23774
61492129,23764
61493468,23777
61494807,23775
61496146,23779
61497486,23775
61498825,23779
61500164,23781
61501503,23775
61502842,23776
61504181,23776
61505520,23782
61506859,23792
61508198,23774
61509537,23790
61510876,23780
61512214,23777
61513553,23776
61514893,23771
61516614,23776
61517956,23783
61519299,23780
61520639,23783
61521980,23768
61523319,23783
61524658,23778
61525997,23772
61527336,23774
61528676,23775
61530015,23776
61531354,23776
61532693,23773
61534032,23776
61535372,23773
61536711,23770
61538050,23780
61539389,23771
61540728,23778
61542067,23769
61543406,23779
61544746,23775
61546084,23775
61547424,23778
61548763,23779
61550102,23772
61551441,23778
61552780,23780
61554119,23782
61555458,23773
61556795,23773
61558134,23781
61559474,23772
61560813,23776
61562152,23774
61563491,23771
61564830,23765
61566169,23772
61567509,23775
61568848,23770
61570188,23774
61571528,23778
61572867,23769
61574206,23772
61575546,23776
61576885,23775
61578224,23779
61579563,23774
61580902,23775
61582241,23771
61583579,23771
61584918,23772
61586258,23769
61587598,23762
61588937,23782
61590275,23773
61591615,23771
61592955,23783
61594294,23774
61595633,23782
61596972,23772
61599576,23773
61600916,23775
61602255,23764
61603594,23781
61604933,23771
61606272,23780
61607610,23780
61608950,23778
61610289,23781
61611628,23781
61612967,23781
61614306,23781
61615645,23776
61616984,23777
61618323,23784
61619661,23775
61621001,23780
61622340,23775
61623679,23782
61625018,23793
61626357,23781
61627696,23789
61629034,23772
61630373,23783
61631713,23782
61633051,23791
61634391,23781
61635730,23789
61637069,23789
61638408,23778
61639746,23794
61641086,23799
61642425,23792
61643765,23801
61645104,23790
61646442,23794
61647782,23800
61649121,23799
61650460,23796
61651798,23800
61653138,23793
61654476,23802
61655816,23800
61657155,23810
61658494,23803
61659833,23807
61661172,23813
61662510,23795
61663849,23815
61665189,23813
61666528,23795
61667867,23808
61669206,23806
61670545,23818
61672265,23824
61673605,23800
61674945,23813
61676288,23815
61677630,23802
61678970,23810
61680309,23809
61681649,23814
61682988,23816
61684327,23816
61685667,23825
61687006,23812
61688344,23825
61689683,23814
61691023,23823
61692361,23831
61693701,23827
61695040,23834
61696379,23821
61697719,23822
61699058,23825
61700397,23828
61701736,23828
61703075,23844
61704414,23826
61705753,23825
61707092,23815
61708431,23830
61709770,23840
61711109,23828
61712448,23837
61713787,23832
61715126,23845
61716464,23838
61717804,23835
61719143,23840
61720482,23833
61721821,23842
61723160,23845
61724499,23842
61725839,23843
61727178,23840
61728517,23839
61729856,23842
61731195,23834
61732534,23846
61735138,23851
61736478,23831
61737817,23851
61739156,23837
61740495,23845
61741834,23853
61743172,23852
61744512,23850
61745852,23846
61747191,23854
61748530,23868
61749871,23855
61751210,23852
61752549,23869
61753888,23851
61755227,23866
61756566,23857
61757905,23867
61759244,23864
61760583,23847
61761922,23861
61763261,23858
61764600,23833
61765938,23864
61767278,23857
61768618,23864
61769956,23864
61771295,23862
61772635,23869
61773974,23869
61775313,23862
61776652,23862
61777991,23865
61779330,23869
61780668,23864
61782008,23865
61783347,23860
61784685,23868
61786025,23871
61787364,23865
61788702,23862
61790042,23867
61791381,23876
61792720,23865
61794059,23852
61795397,23870
61796737,23869
61798075,23871
61799415,23861
61800754,23874
61802093,23878
61803432,23860
61804771,23871
61806109,23876
61807449,23877
61808788,23874
61810127,23875
61811467,23873
61812806,23872
61814145,23876
61815484,23884
61818066,23863
61819406,23875
61820745,23863
61822084,23862
61823422,23862
61824761,23857
61826102,23862
61827821,23851
61829162,23838
61830502,23860
61831844,23885
61833185,23841
61834525,23836
61835863,23842
61837203,23828
61838542,23836
61839881,23830
61841221,23815
61842560,23820
61843898,23821
61845238,23816
61846577,23809
61847915,23811
61849255,23798
61850595,23799
61851933,23801
61853273,23795
61854612,23797
61855951,23793
61857290,23787
61858629,23769
61859968,23779
61861306,23764
61862646,23769
61863985,23765
61865324,23762
61866662,23757
61868002,23756
61869340,23754
61871946,23750
61873286,23740
61874625,23737
61875964,23738
61877303,23731
61878642,23725
61879982,23734
61881320,23728
61882660,23723
61883999,23717
61885337,23711
61886677,23722
61888016,23711
61889355,23708
61890694,23711
61892033,23811
61893372,23704
61894711,23705
61896050,23691
61897389,23688
61898728,23685
61900068,23687
61901408,23681
61902747,23684
61904086,23695
61905427,23681
61906765,23680
61908105,23689
61909444,23673
61910783,23686
61912122,23674
61913460,23669
61914799,23684
61916138,23673
61917477,23672
61918816,23669
61920155,23731
61921493,23672
61922833,23675
61924172,23677
61925511,23667
61926850,23671
61928189,23670
61929528,23663
61930867,23663
61932206,23668
61933544,23660
61934883,23667
61936223,23678
61937562,23669
61938902,23675
61940242,23664
61941581,23662
61942920,23679
61944259,23664
61945598,23678
61946936,23663
61948276,23681
61949615,23669
61950953,23665
61952293,23678
61953632,23663
61954971,23676
61956310,23675
61957649,23672
61958988,23672
61960328,23675
61961667,23679
61963006,23680
61964346,23680
61965685,23682
61967024,23687
61968363,23677
61969702,23686
61971041,23677
61972380,23683
61973718,23694
61975058,23686
61976397,23660
61977736,23699
61979075,23684
61980414,23692
61981753,23692
61983092,23704
61984812,23692
61986152,23684
61987493,23694
61988835,23684
61990177,23698
61991517,23698
61992856,23694
61994195,23695
61995534,23701
61996873,23700
61998212,23697
61999551,23690
62000891,23702
62002229,23699
62003569,23697
62004908,23703
62007513,23702
62008853,23712
62010192,23703
62011531,23713
62012869,23705
62014209,23709
62015548,23702
62016888,23718
62018227,23700
62019567,23705
62020906,23708
62022245,23713
62023584,23710
62024923,23711
62026262,23707
62027600,23714
62028940,23702
62030279,23714
62031617,23715
62032956,23712
62034296,23715
62035635,23710
62036974,23706
62038313,23712
62039652,23713
62040991,23731
62042331,23716
62043670,23718
62045010,23725
62046348,23716
62047688,23727
62049027,23721
62050365,23712
62051705,23719
62053044,23712
62054383,23723
62055722,23722
62057061,23721
62058401,23728
62059739,23722
62061079,23734
62062419,23730
62063758,23730
62065097,23733
62066436,23730
62067776,23725
62069115,23738
62070453,23729
62071793,23725
62073132,23731
62074471,23730
62075810,23730
62077149,23730
62078488,23730
62079828,23732
62081167,23736
62082508,23732
62083847,23738
62085186,23716
62086525,23740
62087864,23731
62089203,23734
62090542,23740
62091881,23736
62093220,23735
62094559,23726
62095898,23740
62097237,23743
62098576,23724
62099915,23723
62101253,23737
62102593,23724
62103932,23739
62105271,23738
62106610,23738
62107949,23727
62109288,23728
62110626,23731
62111966,23735
62113305,23729
62114644,23741
62115983,23725
62117323,23741
62118662,23732
62120001,23734
62121340,23739
62122679,23732
62124018,23736
62125357,23738
62126696,23730
62128035,23733
62129374,23740
62130713,23721
62132052,23737
62133392,23731
62134731,23729
62136070,23731
62137409,23731
62138748,23736
62140467,23723
62143072,23724
62144413,23725
62145754,23727
62147095,23734
62148436,23722
62149775,23730
62151114,23739
62152453,23727
62153792,23731
62155132,23740
62156471,23731
62157810,23733
62159150,23718
62160489,23721
62161828,23734
62163167,23729
62164507,23742
62165845,23728
62167185,23728
62168524,23743
62169863,23733
62171202,23735
62172542,23740
62173880,23732
62175219,23738
62176559,23732
62177898,23737
62179237,23732
62180575,23731
62181914,23733
62183254,23739
62184593,23737
62185932,23746
62187271,23733
62188610,23748
62189949,23735
62191288,23742
62192627,23744
62193966,23727
62195305,23739
62196644,23735
62197982,23735
62199322,23745
62200661,23735
62202000,23742
62203338,23735
62204678,23738
62206017,23743
62207356,23743
62208695,23739
62210034,23745
62211375,23733
62212715,23747
62214055,23748
62215393,23754
62216732,23754
62218072,23745
62219411,23752
62220750,23744
62222090,23732
62223429,23761
62224768,23753
62226106,23755
62227446,23744
62228784,23752
62230124,23754
62231464,23765
62232803,23758
62234142,23762
62235481,23758
62236820,23759
62238159,23773
62239498,23766
62240837,23766
62242176,23765
62243515,23757
62244854,23772
62246194,23767
62247533,23773
62248872,23767
62250211,23743
62251551,23777
62252890,23768
62254229,23776
62255568,23771
62256906,23776
62258246,23775
62259585,23764
62260924,23773
62262263,23775
62263602,23770
62264940,23776
62266280,23782
62267619,23779
62268957,23790
62270297,23774
62271636,23781
62272975,23787
62274314,23779
62275653,23801
62278259,23785
62279599,23758
62280938,23793
62282276,23789
62283616,23801
62284955,23796
62286294,23800
62287633,23800
62288972,23785
62290311,23799
62291650,23800
62292989,23798
62294327,23808
62295669,23794
62297008,23799
62298729,23814
62300069,23800
62301412,23807
62302752,23798
62304093,23803
62305433,23812
62306772,23807
62308111,23808
62309450,23812
62310790,23804
62312130,23814
62313469,23806
62314808,23810
62316147,23816
62317486,23813
62318825,23810
62320163,23809
62321504,23819
62322843,23827
62324182,23823
62325521,23811
62326860,23813
62328199,23818
62329538,23823
62330877,23826
62332216,23827
62333555,23832
62334894,23828
62336233,23834
62337572,23827
62338911,23838
62340250,23827
62341588,23826
62342928,23836
62344267,23832
62345606,23832
62346944,23839
62348284,23833
62349623,23844
62350962,23839
62352301,23836
62353640,23841
62354979,23845
62356318,23847
62357657,23844
62358996,23816
62360335,23846
62361674,23846
62363013,23851
62364352,23849
62365691,23850
62367030,23860
62368369,23843
62369709,23854
62371048,23862
62372387,23851
62373727,23849
62375067,23856
62376406,23848
62377744,23855
62379084,23851
62380423,23856
62381763,23860
62383102,23856
62384440,23865
62385779,23863
62387119,23832
62388458,23846
62389797,23860
62391135,23866
62392475,23861
62393814,23870
62395153,23868
62396492,23862
62397831,23862
62399169,23870
62400509,23861
62401848,23865
62403187,23861
62404526,23866
62405865,23867
62407203,23874
62408542,23871
62409881,23861
62411221,23868
62413826,23870
62415166,23867
62416506,23873
62417845,23862
62419184,23870
62420523,23864
62421862,23872
62423201,23874
62424540,23873
62425879,23874
62427218,23879
62428556,23864
62429896,23883
62431234,23873
62432573,23874
62433912,23887
62435252,23882
62436591,23881
62437931,23874
62439270,23878
62440609,23885
62441948,23878
62443288,23879
62444628,23874
62445967,23865
62447306,23881
62448645,23879
62449985,23882
62451324,23900
62452663,23880
62454381,23883
62455722,23893
62457063,23882
62458405,23879
62459746,23891
62461086,23885
62462425,23887
62463765,23885
62465104,23883
62466447,23887
62467787,23887
62469126,23882
62470465,23881
62471804,23881
62473143,23882
62474482,23875
62475821,23877
62477159,23877
62478499,23877
62479838,23865
62481177,23863
62482516,23875
62483855,23862
62485608,23772
62486949,23766
62488288,23761
62489627,23757
62490966,23756
62492306,23752
62493644,23752
62494984,23734
62496323,23741
62497662,23737
62499001,23729
62500340,23744
62501679,23727
62503018,23831
62504357,23718
62505695,23723
62507035,23719
62508373,23705
62509712,23717
62511052,23719
62512391,23700
62513730,23701
62515069,23696
62516407,23698
62517747,23699
62519086,23689
62520425,23691
62521763,23698
62523103,23687
62524442,23697
62525782,23682
62527121,23688
62528459,23681
62529799,23690
62531139,23676
62532478,23673
62533816,23681
62535156,23681
62536496,23682
62537835,23687
62539173,23680
62540512,23677
62541852,23671
62543191,23669
62544530,23685
62545869,23678
62547208,23670
62549812,23680
62551151,23672
62552490,23686
62553829,23682
62555168,23677
62556507,23673
62557846,23676
62559185,23672
62560524,23684
62561863,23674
62563202,23689
62564541,23674
62565880,23683
62567220,23684
62568559,23674
62569898,23676
62571237,23684
62572577,23670
62573915,23683
62575255,23682
62576594,23684
62577932,23687
62579272,23680
62580611,23680
62581950,23685
62583289,23687
62584628,23689
62585967,23685
62587307,23686
62588646,23690
62589985,23695
62591324,23701
62592664,23687
62594004,23692
62595344,23693
62596683,23691
62598022,23702
62599361,23693
62600700,23699
62602039,23698
62603379,23705
62604719,23700
62606058,23706
62607397,23694
62608736,23702
62610453,23706
62611793,23708
62613132,23707
62614474,23700
62615816,23700
62617155,23703
62618495,23713
62619834,23708
62621174,23707
62622514,23710
62623854,23710
62625192,23715
62626532,23713
62627872,23712
62629211,23719
62630552,23714
62631890,23722
62633230,23717
62634568,23714
62635908,23720
62637247,23717
62638586,23719
62639925,23721
62641264,23702
62642603,23716
62643942,23719
62645281,23722
62646620,23727
62647959,23727
62649298,23726
62650637,23721
62651976,23729
62653315,23741
62654653,23726
62655993,23728
62657332,23736
62658671,23727
62660010,23740
62661349,23732
62662689,23732
62664028,23729
62665367,23735
62666706,23744
62668045,23738
62669384,23713
62670722,23745
62672062,23731
62673401,23746
62674739,23745
62676078,23742
62677417,23750
62678758,23740
62680097,23748
62681436,23755
62682776,23753
62685381,23755
62686721,23754
62688061,23744
62689400,23754
62690739,23758
62692078,23754
62693417,23744
62694756,23751
62696095,23757
62697434,23763
62698774,23756
62700112,23728
62701452,23754
62702791,23765
62704130,23756
62705468,23752
62706808,23760
62708147,23766
62709486,23758
62710825,23755
62712164,23764
62713504,23762
62714843,23770
62716182,23758
62717521,23764
62718860,23765
62720199,23767
62721538,23769
62722878,23766
62724217,23764
62725556,23768
62726894,23760
62728234,23765
62729573,23764
62730913,23767
62732252,23768
62733591,23767
62734930,23761
62736270,23772
62737611,23763
62738950,23760
62740289,23762
62741628,23762
62742967,23771
62744306,23759
62745645,23764
62746984,23758
62748323,23762
62749663,23764
62751002,23756
62752341,23762
62753680,23764
62755019,23765
62756358,23767
62757696,23754
62759036,23775
62760375,23763
62761715,23763
62763054,23774
62764393,23767
62765733,23758
62767453,23767
62768794,23759
62770135,23763
62771476,23759
62772818,23764
62774158,23767
62775497,23766
62776836,23770
62778175,23768
62779515,23755
62780853,23764
62782192,23762
62783532,23764
62784871,23770
62786210,23761
62787548,23767
62788888,23764
62790228,23771
62791567,23772
62792906,23768
62794245,23773
62795585,23771
62796924,23771
62798263,23772
62799603,23764
62800942,23776
62802281,23763
62803620,23772
62804960,23770
62806299,23774
62807639,23781
62808978,23772
62810317,23777
62811656,23782
62812995,23788
62814334,23781
62815673,23771
62817012,23779
62818351,23792
62820954,23783
62822294,23779
62823633,23784
62824972,23777
62826311,23786
62827650,23788
62828989,23785
62830329,23793
62831667,23782
62833007,23789
62834346,23792
62835685,23772
62837024,23795
62838364,23788
62839704,23787
62841043,23790
62842382,23788
62843722,23792
62845062,23800
62846401,23789
62847739,23794
62849079,23794
62850418,23799
62851757,23793
62853096,23806
62854435,23793
62855774,23807
62857113,23796
62858453,23796
62859792,23812
62861131,23803
62862470,23808
62863809,23800
62865148,23779
62866487,23806
62867827,23805
62869166,23807
62870504,23807
62871844,23814
62873183,23821
62874522,23802
62875861,23817
62877199,23821
62878539,23813
62879877,23813
62881216,23820
62882556,23815
62883895,23823
62885234,23823
62886573,23818
62887912,23818
62889251,23823
62890590,23824
62891929,23819
62893267,23799
62894607,23825
62895946,23822
62897285,23824
62898623,23823
62899963,23827
62901302,23838
62902641,23826
62903980,23825
62905320,23836
62906659,23834
62907998,23833
62909337,23838
62910676,23824
62912015,23847
62913354,23834
62914692,23838
62916032,23841
62917371,23836
62918710,23841
62920048,23835
62921389,23813
62923107,23848
62924448,23845
62925787,23849
62927129,23842
62928470,23846
62929812,23853
62931151,23836
62932490,23846
62933829,23854
62935168,23856
62936508,23850
62937847,23852
62939186,23845
62940525,23857
62941864,23855
62943203,23859
62944542,23855
62945881,23862
62947219,23858
62948559,23857
62949898,23834
62951237,23860
62952576,23870
62953915,23862
62956520,23860
62957860,23866
62959199,23866
62960538,23857
62961877,23874
62963216,23874
62964555,23871
62965893,23864
62967233,23872
62968572,23881
62969911,23862
62971250,23842
62972588,23873
62973927,23870
62975267,23877
62976606,23875
62977945,23877
62979284,23878
62980624,23869
62981963,23871
62983303,23887
62984642,23871
62985980,23872
62987320,23886
62988658,23883
62989998,23885
62991337,23880
62992676,23879
62994015,23883
62995356,23886
62996696,23880
62998036,23884
62999375,23883
63000715,23889
63002053,23874
63003393,23890
63004732,23886
63006071,23883
63007410,23893
63008749,23876
63010089,23886
63011428,23884
63012767,23888
63014105,23892
63015444,23898
63016784,23887
63018124,23887
63019463,23889
63020801,23888
63022141,23899
63023480,23886
63024818,23891
63026158,23896
63027498,23890
63028837,23901
63030176,23881
63031515,23898
63032854,23893
63034193,23899
63035532,23897
63036871,23893
63038210,23899
63039549,23892
63040888,23894
63042227,23896
63043566,23901
63044905,23888
63046244,23905
63047583,23895
63048923,23895
63050262,23898
63051600,23903
63052940,23908
63054279,23899
63055618,23904
63056957,23906
63058296,23895
63059636,23905
63060974,23900
63062314,23905
63063653,23904
63064993,23892
63066332,23902
63067671,23905
63069010,23895
63070349,23912
63071687,23901
63073027,23901
63074366,23904
63075706,23899
63077045,23895
63078384,23903
63080104,23896
63081444,23902
63082785,23897
63084126,23897
63085467,23902
63086806,23901
63088145,23892
63089484,23889
63092088,23894
63093429,23900
63094768,23883
63096107,23885
63097446,23881
63098785,23883
63100125,23892
63101464,23886
63102803,23879
63104141,23883
63105481,23871
63106820,23876
63108160,23873
63109500,23867
63110838,23868
63112178,23861
63113517,23861
63114856,23858
63116196,23901
63117536,23864
63118875,23854
63120213,23848
63121553,23847
63122891,23840
63124231,23843
63125569,23834
63126908,23839
63128248,23831
63129587,23824
63130926,23825
63132264,23813
63133603,23813
63134943,23821
63136282,23805
63137621,23883
63138960,23800
63140299,23790
63141639,23805
63142978,23786
63144317,23787
63145657,23784
63146996,23768
63148335,23778
63149674,23784
63151013,23766
63152353,23766
63153692,23760
63155030,23765
63156371,23764
63157711,23755
63160706,23714
63162045,23707
63163384,23705
63164724,23702
63166063,23704
63167402,23709
63168741,23708
63170080,23702
63171419,23708
63172758,23708
63174097,23728
63175436,23705
63176776,23718
63178115,23715
63179454,23708
63180793,23720
63182132,23714
63183471,23711
63184811,23711
63186150,23716
63187489,23712
63188828,23720
63190167,23707
63191507,23713
63192846,23712
63194185,23713
63195524,23715
63196862,23708
63198202,23725
63199541,23713
63200880,23716
63202219,23719
63203558,23715
63204897,23727
63206236,23724
63207575,23725
63208914,23736
63210252,23726
63211592,23724
63212931,23727
63214269,23726
63215609,23735
63216948,23727
63218287,23732
63219625,23738
63220965,23731
63222303,23734
63223642,23736
63224982,23734
63226321,23743
63228926,23738
63230267,23743
63231606,23739
63232945,23745
63234284,23707
63236005,23749
63237347,23737
63238687,23751
63240028,23748
63241369,23751
63242711,23753
63244050,23755
63245389,23753
63246728,23749
63248067,23747
63249407,23764
63250746,23753
63252084,23759
63253424,23764
63254763,23726
63256102,23762
63257440,23756
63258780,23765
63260118,23749
63261458,23761
63262797,23774
63264136,23759
63265475,23773
63266814,23772
63268154,23770
63269493,23772
63270832,23773
63272170,23769
63273510,23782
63274849,23776
63276188,23770
63277527,23773
63278866,23776
63280204,23785
63281543,23781
63282882,23748
63284221,23777
63285560,23781
63286900,23788
63288240,23783
63289579,23791
63290918,23783
63292257,23779
63293596,23784
63294935,23792
63296273,23785
63297612,23796
63298952,23788
63300291,23788
63301630,23790
63302969,23792
63304308,23799
63305647,23793
63306987,23790
63308327,23791
63309666,23799
63311004,23770
63312345,23794
63313686,23794
63315024,23800
63316364,23788
63317703,23795
63319042,23793
63320380,23797
63321720,23796
63323059,23795
63324398,23790
63325737,23804
63327076,23794
63328415,23804
63329754,23797
63331092,23798
63332432,23801
63333771,23794
63335110,23795
63336449,23797
63337788,23794
63339127,23798
63340466,23785
63341805,23792
63343144,23799
63344483,23797
63345822,23801
63347161,23802
63348501,23797
63349839,23801
63351179,23794
63352520,23802
63353859,23793
63355198,23792
63356536,23813
63357876,23788
63359215,23800
63360554,23797
63361892,23797
63364499,23791
63365839,23790
63367178,23807
63368517,23798
63369856,23788
63371196,23804
63372535,23795
63373873,23801
63375213,23794
63376552,23792
63377891,23798
63379230,23803
63380569,23786
63381908,23793
63383246,23801
63384586,23794
63385925,23788
63387264,23803
63388603,23799
63389942,23798
63391282,23804
63393002,23798
63394342,23804
63395683,23793
63397026,23810
63398367,23796
63399706,23792
63401046,23801
63402385,23793
63403723,23799
63405063,23798
63406402,23798
63407741,23799
63409080,23797
63410419,23806
63411760,23798
63413099,23801
63414439,23796
63415778,23791
63417117,23807
63418456,23802
63419795,23792
63421135,23800
63422474,23795
63423813,23808
63425152,23805
63426491,23808
63427830,23804
63429169,23806
63430508,23807
63431847,23805
63433187,23806
63434526,23811
63435865,23796
63437204,23807
63438542,23812
63439882,23812
63441221,23816
63442559,23803
63443899,23802
63445238,23812
63446576,23812
63447916,23798
63449255,23813
63450594,23804
63451933,23814
63453272,23807
63454612,23820
63455950,23812
63457289,23816
63458628,23818
63459968,23809
63461307,23817
63462646,23815
63463986,23817
63465325,23818
63466664,23823
63468003,23813
63469343,23820
63470683,23819
63472022,23831
63473361,23822
63474701,23820
63476040,23806
63477378,23825
63478718,23814
63480057,23830
63481396,23830
63482735,23833
63484074,23836
63485413,23821
63486752,23835
63488091,23832
63489430,23838
63490769,23836
63492108,23829
63493447,23836
63494786,23835
63496125,23836
63497464,23845
63500068,23833
63501408,23846
63502748,23833
63504087,23842
63505426,23847
63506765,23830
63508104,23845
63509443,23845
63510782,23841
63512121,23840
63513460,23839
63514799,23849
63516138,23842
63517477,23854
63518816,23856
63520154,23850
63521494,23848
63522832,23846
63524172,23860
63525511,23846
63526849,23858
63528189,23858
63529528,23849
63530866,23859
63532207,23859
63533547,23857
63534886,23860
63536225,23829
63537564,23865
63538904,23857
63540243,23862
63541583,23869
63542922,23858
63544262,23857
63545602,23866
63546941,23863
63548658,23872
63550000,23875
63551340,23867
63552682,23871
63554023,23871
63555365,23880
63556704,23870
63558044,23874
63559383,23870
63560722,23871
63562062,23879
63563401,23870
63564740,23848
63566079,23879
63567417,23871
63568757,23883
63570096,23891
63571435,23881
63572774,23890
63574113,23876
63575452,23890
63576791,23882
63578130,23886
63579469,23884
63580808,23884
63582146,23899
63583485,23893
63584825,23869
63586164,23887
63587504,23896
63588843,23896
63590182,23891
63591522,23892
63592861,23893
63594200,23883
63595540,23891
63596879,23902
63598218,23899
63599557,23898
63600896,23892
63602235,23901
63603574,23903
63604912,23897
63606252,23905
63607591,23891
63608930,23904
63610269,23898
63611608,23907
63612946,23904
63614286,23899
63615625,23908
63616964,23899
63618304,23907
63619642,23909
63620983,23906
63622322,23907
63623661,23905
63625001,23905
63626341,23906
63627680,23914
63629019,23903
63630359,23915
63631698,23904
63633037,23926
63635642,23920
63636981,23911
63638321,23917
63639661,23917
63641000,23916
63642338,23913
63643678,23898
63645017,23923
63646356,23917
63647694,23917
63649034,23911
63650373,23923
63651712,23928
63653051,23924
63654390,23923
63655729,23923
63657068,23915
63658407,23919
63659745,23926
63661084,23921
63662424,23924
63663763,23926
63665101,23930
63666441,23925
63667780,23926
63669119,23929
63670458,23929
63671797,23927
63673136,23903
63674475,23929
63675813,23927
63677152,23935
63678492,23920
63679831,23928
63681170,23921
63682510,23921
63683849,23919
63685187,23933
63686526,23922
63687866,23920
63689205,23915
63690544,23911
63691882,23927
63693222,23920
63694561,23924
63695900,23911
63697239,23916
63698578,23904
63699917,23910
63701256,23919
63702595,23900
63703934,23895
63705655,23905
63706994,23898
63708335,23896
63709677,23898
63711019,23882
63712359,23895
63713698,23882
63715037,23871
63716375,23889
63717715,23876
63719054,23876
63720394,23872
63721732,23863
63723072,23868
63724411,23856
63725749,23859
63727088,23850
63728428,23845
63729766,23846
63731105,23836
63732445,23839
63733784,23838
63735122,23829
63736462,23828
63737802,23823
63739141,23813
63740480,23817
63741819,23818
63743158,23816
63744497,23806
63745836,23806
63747175,23802
63748514,23798
63749853,23801
63751191,23788
63752530,23791
63753870,23780
63755209,23780
63756548,23784
63757887,23788
63759226,23769
63760564,23765
63761904,23764
63763243,23779
63764582,23773
63765921,23754
63767260,23768
63768599,23757
63771202,23758
63772542,23761
63773881,23750
63775220,23753
63776559,23740
63777899,23751
63779238,23747
63780577,23828
63781917,23750
63783257,23743
63784595,23742
63785935,23750
63787274,23736
63788613,23743
63789952,23742
63791290,23738
63792629,23758
63793969,23737
63795308,23723
63796648,23739
63797987,23738
63799327,23741
63800666,23736
63802005,23727
63803344,23735
63804683,23731
63806022,23742
63807361,23729
63808699,23736
63810039,23754
63811377,23724
63812717,23735
63814056,23741
63815395,23736
63816734,23743
63818073,23746
63819412,23733
63820750,23738
63822090,23746
63823429,23736
63824768,23736
63826107,23737
63827860,23776
63829200,23786
63830539,23777
63831878,23780
63833218,23773
63834557,23766
63835896,23782
63837234,23769
63838574,23768
63839913,23777
63841251,23771
63842591,23777
63843930,23775
63845270,23763
63846609,23788
63847948,23784
63849286,23796
63850626,23781
63851965,23785
63853304,23795
63854643,23789
63855982,23797
63857321,23796
63858660,23791
63859999,23789
63861718,23795
63863059,23794
63864401,23794
63865742,23770
63867084,23795
63868425,23798
63869764,23801
63871104,23798
63872443,23804
63873783,23812
63875123,23800
63876462,23791
63877801,23813
63879139,23798
63880479,23813
63881819,23814
63883158,23798
63884497,23819
63885836,23814
63887175,23809
63888514,23810
63889853,23810
63891193,23814
63892532,23810
63893872,23781
63895211,23815
63896551,23816
63897890,23825
63899228,23821
63900568,23821
63901906,23824
63903246,23820
63904584,23817
63907189,23824
63908529,23819
63909868,23823
63911207,23820
63912546,23825
63913885,23831
63915224,23819
63916562,23827
63917901,23833
63919241,23820
63920580,23826
63921919,23820
63923258,23828
63924597,23831
63925937,23821
63927276,23825
63928615,23816
63929954,23821
63931293,23821
63932633,23822
63933972,23821
63935311,23824
63936651,23834
63937990,23828
63939331,23820
63940670,23818
63942009,23831
63943348,23820
63944687,23815
63946026,23827
63947365,23823
63948703,23816
63950043,23816
63951382,23822
63952721,23834
63954060,23820
63955398,23823
63956738,23820
63958078,23824
63959417,23821
63960756,23816
63962095,23819
63963434,23818
63964773,23821
63966111,23833
63967451,23828
63968790,23824
63970129,23821
63971468,23817
63972807,23820
63974146,23815
63975485,23830
63976824,23814
63978163,23817
63979502,23824
63980841,23824
63982180,23820
63983518,23824
63984857,23824
63986197,23823
63987536,23810
63988875,23825
63990214,23814
63991553,23816
63992892,23817
63994231,23827
63995570,23824
63996908,23828
63998248,23816
63999588,23824
64000927,23821
64002268,23823
64003608,23818
64004947,23820
64006286,23831
64007626,23821
64008965,23823
64010304,23822
64011643,23824
64012981,23815
64014320,23821
64015661,23825
64017382,23825
64018724,23821
64020064,23822
64021406,23815
64022746,23826
64024088,23831
64025427,23832
64026766,23818
64028105,23826
64029444,23824
64030784,23825
64032123,23825
64033461,23825
64034801,23822
64036140,23832
64037479,23817
64038819,23832
64040158,23837
64042762,23830
64044102,23834
64045441,23836
64046780,23824
64048120,23845
64049458,23835
64050798,23826
64052137,23832
64053476,23832
64054816,23844
64056156,23839
64057494,23827
64058834,23836
64060173,23838
64061512,23837
64062851,23825
64064190,23834
64065528,23840
64066868,23837
64068207,23840
64069545,23843
64070885,23849
64072224,23845
64073563,23842
64074903,23840
64076242,23849
64077581,23850
64078920,23842
64080259,23845
64081598,23855
64082937,23850
64084276,23845
64085615,23844
64086954,23858
64088294,23843
64089633,23850
64090973,23852
64092312,23835
64093651,23856
64094991,23848
64096331,23860
64097669,23852
64099008,23853
64100348,23864
64101687,23854
64103025,23854
64104365,23865
64105704,23856
64107043,23856
64108382,23855
64109721,23851
64111060,23864
64112399,23859
64113738,23856
64115076,23857
64116416,23870
64117755,23868
64119094,23872
64120433,23850
64121772,23867
64123111,23867
64124450,23873
64125789,23868
64127128,23881
64128467,23867
64129806,23874
64131145,23882
64132484,23879
64133823,23874
64135162,23873
64136502,23870
64137841,23888
64139180,23875
64140519,23884
64141858,23879
64143197,23879
64144536,23887
64145875,23870
64147214,23887
64148554,23887
64149893,23878
64151233,23887
64152572,23882
64153912,23891
64155251,23897
64156589,23899
64157929,23892
64159268,23895
64160607,23887
64161946,23888
64163285,23897
64164624,23887
64165963,23893
64167302,23891
64168642,23899
64169981,23899
64171320,23893
64172660,23902
64174380,23892
64175720,23907
64178327,23891
64179667,23873
64181009,23898
64182348,23892
64183687,23904
64185026,23904
64186364,23896
64187705,23902
64189043,23899
64190383,23905
64191722,23901
64193061,23903
64194400,23902
64195740,23906
64197078,23907
64198418,23912
64199757,23900
64201096,23899
64202435,23902
64203774,23907
64205113,23913
64206452,23898
64207793,23914
64209132,23911
64210471,23904
64211810,23909
64213148,23911
64214488,23912
64215826,23916
64217165,23915
64218505,23920
64219844,23916
64221182,23915
64222522,23917
64223862,23907
64225200,23917
64226540,23916
64227880,23925
64229219,23917
64230559,23918
64231898,23922
64233236,23918
64234576,23920
64235915,23926
64237254,23926
64238594,23922
64239933,23919
64241271,23916
64242611,23928
64243950,23921
64245289,23924
64246629,23926
64247968,23920
64249307,23921
64250646,23914
64251985,23915
64253325,23933
64254663,23922
64256003,23927
64257342,23922
64258683,23916
64260022,23923
64261361,23919
64262701,23913
64264040,23921
64265380,23916
64266719,23917
64268058,23909
64269396,23907
64270736,23910
64272075,23901
64273414,23891
64274753,23898
64276092,23890
64277431,23897
64278771,23890
64280109,23885
64281449,23882
64282788,23884
64284127,23881
64285466,23868
64286805,23921
64288144,23867
64289483,23872
64290822,23874
64292161,23855
64293501,23860
64294840,23860
64296179,23838
64297518,23841
64298857,23844
64300196,23833
64301535,23834
64302874,23830
64304213,23825
64305552,23822
64306892,23817
64308232,23817
64309571,23805
64310910,23806
64313515,23808
64314854,23803
64316193,23901
64317532,23790
64318871,23781
64320210,23785
64321550,23775
64322888,23784
64324229,23779
64325568,23764
64326907,23769
64328246,23762
64329587,23761
64331306,23766
64332648,23753
64333989,23751
64335331,23748
64336671,23735
64338011,23749
64339350,23743
64340690,23737
64342029,23741
64343368,23731
64344708,23729
64346048,23727
64347387,23719
64348725,23725
64350065,23715
64351404,23713
64352743,23717
64354081,23721
64355421,23707
64356760,23722
64358099,23712
64359438,23713
64360777,23713
64362116,23706
64363455,23704
64364794,23703
64366133,23700
64367472,23697
64368811,23712
64370150,23701
64371489,23691
64372827,23707
64374167,23703
64375507,23707
64376846,23699
64378185,23700
64379523,23704
64380863,23704
64382202,23695
64383541,23703
64384880,23694
64386222,23702
64387562,23702
64388901,23697
64390240,23701
64391579,23685
64392917,23705
64394256,23691
64395596,23717
64396935,23705
64398273,23695
64399612,23700
64400952,23700
64402292,23708
64403632,23713
64404971,23692
64406310,23701
64407650,23705
64408990,23704
64410329,23705
64411668,23704
64413007,23696
64414346,23707
64415685,23707
64417024,23699
64418362,23701
64419701,23704
64421040,23708
64422380,23707
64423719,23704
64425058,23713
64426397,23702
64427736,23714
64429074,23705
64430414,23715
64431753,23713
64433092,23708
64434431,23715
64435770,23713
64437109,23718
64438447,23721
64439787,23717
64441126,23713
64442465,23719
64443804,23714
64445143,23726
64446482,23715
64449087,23723
64450427,23717
64451766,23716
64453106,23704
64454445,23720
64455784,23715
64457123,23717
64458462,23720
64459801,23729
64461141,23728
64462480,23720
64463819,23733
64465158,23728
64466498,23730
64467836,23730
64469176,23729
64470515,23724
64471854,23733
64473193,23729
64474531,23735
64475871,23725
64477210,23729
64478548,23728
64479887,23734
64481226,23728
64482565,23720
64483904,23737
64485243,23731
64486583,23734
64488293,23737
64489634,23735
64490976,23732
64492317,23734
64493659,23734
64494999,23744
64496338,23748
64497677,23738
64500260,23742
64501600,23757
64502940,23748
64504278,23747
64505618,23757
64506957,23748
64508295,23751
64509635,23751
64510973,23735
64512313,23758
64513652,23752
64514992,23751
64516331,23747
64517670,23748
64519010,23752
64520349,23744
64521688,23748
64523027,23746
64524366,23749
64525704,23755
64527044,23750
64528382,23750
64529722,23754
64531060,23746
64532400,23744
64533739,23749
64535078,23742
64536417,23754
64537755,23746
64539094,23752
64540434,23747
64541773,23755
64543112,23753
64544452,23743
64545791,23748
64547130,23750
64548470,23754
64549808,23744
64551148,23745
64552487,23751
64553826,23746
64555165,23744
64556503,23747
64557844,23747
64559184,23744
64560523,23753
64561862,23752
64563202,23750
64564542,23744
64565882,23750
64567221,23754
64568560,23759
64569899,23753
64571238,23748
64572577,23742
64573916,23747
64575255,23748
64576594,23761
64577933,23754
64579273,23754
64580612,23751
64581950,23745
64583290,23753
64585895,23748
64587234,23748
64588572,23759
64589912,23750
64591251,23749
64592590,23756
64593929,23746
64595269,23751
64596608,23758
64597948,23752
64599288,23744
64600627,23758
64601966,23756
64603306,23748
64604645,23746
64605984,23749
64607322,23761
64608662,23761
64610001,23757
64611340,23745
64612679,23761
64614018,23748
64615358,23759
64616697,23762
64618035,23764
64619375,23755
64620715,23753
64622054,23759
64623394,23766
64624733,23768
64626072,23758
64627411,23775
64628750,23770
64630089,23766
64631428,23775
64632766,23765
64634105,23773
64635445,23757
64636784,23766
64638124,23763
64639463,23768
64640802,23781
64642142,23769
64643862,23772
64645202,23769
64646544,23774
64647886,23781
64649227,23769
64650567,23774
64651906,23790
64653245,23778
64654584,23784
64655923,23778
64657263,23777
64658602,23781
64659942,23762
64661282,23791
64662622,23778
64663961,23788
64665300,23780
64666639,23784
64667979,23789
64669318,23782
64670657,23790
64671997,23789
64673336,23794
64674676,23790
64676016,23796
64677355,23792
64678694,23795
64680032,23788
64681371,23790
64682711,23796
64684049,23799
64685389,23804
64686728,23796
64688067,23769
64689406,23798
64690745,23802
64692085,23810
64693423,23796
64694762,23810
64696101,23818
64697440,23796
64698778,23808
64700118,23808
64701458,23810
64702797,23817
64704136,23798
64705475,23806
64706814,23811
64708153,23809
64709492,23815
64710831,23816
64712170,23801
64713509,23814
64714849,23818
64716188,23812
64717527,23816
64718866,23813
64721470,23826
64722810,23822
64724149,23825
64725488,23822
64726827,23822
64728166,23824
64729506,23826
64730845,23822
64732183,23827
64733523,23817
64734861,23826
64736201,23834
64737540,23820
64738879,23827
64740218,23824
64741557,23821
64742896,23829
64744235,23829
64745574,23834
64746913,23829
64748252,23798
64749590,23832
64750930,23830
64752270,23834
64753609,23833
64754948,23841
64756287,23842
64757625,23826
64758965,23833
64760304,23845
64761643,23835
64762983,23836
64764321,23839
64765661,23838
64767001,23845
64768338,23838
64769678,23842
64771017,23851
64772357,23839
64773695,23849
64775035,23844
64776374,23817
64777713,23853
64779052,23845
64780392,23852
64781731,23847
64783070,23849
64784409,23854
64785748,23846
64787087,23855
64788426,23851
64789765,23851
64791104,23851
64792443,23850
64793784,23853
64795123,23867
64796462,23857
64797801,23861
64799521,23850
64800862,23852
64802202,23866
64803544,23865
64804885,23835
64806227,23858
64807565,23858
64808905,23859
64810245,23858
64811584,23875
64812924,23866
64814263,23852
64815602,23864
64816941,23862
64818280,23861
64819619,23861
64820959,23856
64822298,23865
64823637,23860
64824976,23847
64826315,23856
64827654,23854
64828993,23866
64830331,23851
64831672,23864
64833012,23863
64834350,23854
64835690,23847
64837029,23850
64838367,23853
64839708,23851
64841048,23839
64842387,23847
64843726,23837
64845065,23841
64846405,23843
64847744,23828
64849082,23833
64850423,23830
64851763,23838
64853102,23828
64854441,23812
64857046,23819
64858386,23810
64859726,23812
64861065,23807
64862403,23805
64863742,23796
64865082,23784
64866421,23790
64867760,23794
64869099,23784
64870438,23780
64871777,23775
64873117,23769
64874456,23762
64875795,23770
64877134,23758
64878475,23757
64879813,23762
64881153,23747
64882492,23753
64883831,23743
64885169,23839
64886509,23739
64887848,23729
64889187,23728
64890525,23726
64891865,23724
64893204,23724
64894543,23712
64895882,23705
64897221,23714
64898562,23709
64899901,23705
64901239,23695
64902578,23694
64903918,23701
64905257,23690
64906596,23695
64907935,23681
64909273,23684
64910614,23681
64911953,23682
64913291,23780
64914631,23671
64915970,23673
64917309,23673
64918648,23671
64919987,23663
64921326,23667
64922664,23661
64924003,23660
64925342,23661
64926682,23652
64928021,23661
64929360,23650
64930699,23650
64932038,23660
64933377,23654
64934715,23658
64936054,23644
64937394,23657
64938733,23647
64940073,23653
64941412,23643
64942751,23638
64944089,23648
64945429,23636
64946768,23648
64948107,23649
64949445,23648
64950785,23638
64952125,23649
64953465,23641
64954804,23652
64956525,23641
64957866,23642
64959207,23653
64960549,23646
64961890,23640
64963230,23654
64964569,23642
64965908,23657
64967246,23639
64968586,23652
64969925,23644
64971264,23661
64972603,23645
64973942,23640
64975280,23648
64976620,23655
64977959,23646
64979298,23657
64980637,23642
64981976,23650
64983316,23656
64984655,23650
64985994,23659
64987333,23650
64988673,23657
64990012,23647
64992616,23649
64993955,23659
64995294,23653
64996632,23663
64997972,23666
64999311,23663
65000650,23666
65001989,23650
65003328,23662
65004667,23664
65006006,23663
65007345,23661
65008684,23677
65010023,23657
65011362,23668
65012701,23666
65014040,23662
65015379,23664
65016718,23665
65018056,23670
65019396,23667
65020735,23655
65022073,23678
65023413,23672
65024752,23680
65026092,23669
65027432,23661
65028772,23678
65030111,23670
65031450,23666
65032789,23667
65034129,23664
65035468,23672
65036807,23685
65038146,23667
65039485,23686
65040824,23673
65042162,23678
65043502,23678
65044841,23670
65046179,23679
65047519,23675
65048858,23680
65050197,23672
65051536,23677
65052875,23684
65054214,23676
65055553,23689
65056892,23683
65058231,23673
65059571,23679
65060911,23677
65062250,23689
65063589,23690
65064927,23683
65066267,23677
65067606,23682
65068944,23684
65070284,23681
65071623,23687
65072962,23687
65074301,23686
65075640,23695
65076979,23694
65078318,23677
65079657,23685
65080996,23694
65082335,23691
65083674,23696
65085013,23691
65086351,23693
65087691,23702
65089031,23693
65090370,23693
65091708,23701
65093048,23701
65094387,23706
65095726,23697
65097065,23694
65098403,23703
65099742,23695
65101082,23705
65102421,23702
65103760,23700
65105099,23706
65106438,23700
65107776,23683
65109116,23707
65110455,23706
65112172,23701
65113514,23702
65114855,23708
65116197,23709
65117537,23706
65118879,23716
65120218,23707
65121557,23703
65122896,23713
65124235,23705
65125575,23709
65128177,23709
65129517,23710
65130856,23714
65132195,23702
65133534,23716
65134873,23711
65136211,23713
65137551,23723
65138890,23705
65140229,23722
65141567,23711
65142907,23716
65144246,23715
65145585,23715
65146924,23721
65148264,23717
65149603,23720
65150942,23723
65152280,23721
65153620,23723
65154959,23715
65156299,23724
65157637,23710
65158977,23709
65160316,23717
65161655,23716
65162994,23717
65164332,23726
65165672,23722
65167011,23718
65168350,23721
65169689,23722
65171028,23718
65172367,23719
65173706,23721
65175046,23717
65176385,23719
65178139,23722
65179478,23732
65180817,23736
65182156,23734
65183496,23728
65184836,23716
65186175,23728
65187514,23729
65188854,23731
65190194,23731
65191533,23733
65192872,23738
65194211,23727
65195550,23732
65196889,23744
65198228,23723
65199566,23733
65200906,23731
65202245,23734
65203583,23750
65204923,23732
65206261,23734
65207601,23740
65208940,23734
65210279,23747
65211618,23742
65212957,23736
65214296,23747
65215634,23745
65216974,23744
65218313,23743
65219652,23751
65220991,23761
65222330,23749
65223669,23736
65225008,23739
65226347,23754
65227685,23761
65229024,23753
65230364,23760
65231703,23758
65233042,23753
65234381,23756
65235720,23753
65237058,23754
65238397,23760
65239737,23757
65241076,23757
65242415,23770
65243754,23761
65245093,23767
65246433,23759
65247771,23757
65249110,23771
65250450,23770
65251789,23779
65253129,23768
65254467,23767
65255806,23770
65257145,23767
65258485,23780
65259824,23777
65261163,23768
65263768,23774
65265108,23776
65266448,23779
65267789,23780
65269508,23777
65270848,23779
65272187,23781
65273529,23780
65274870,23787
65276210,23796
65277549,23780
65278888,23787
65280226,23787
65281566,23790
65282906,23797
65284245,23790
65285585,23793
65286925,23792
65288264,23801
65289603,23802
65290942,23796
65292281,23805
65293620,23790
65294958,23803
65296298,23805
65297638,23803
65298977,23817
65300316,23798
65301655,23812
65302993,23802
65304332,23777
65305672,23817
65307011,23810
65308350,23813
65309689,23812
65311028,23808
65312366,23820
65313706,23801
65315044,23816
65316384,23816
65317723,23818
65319061,23815
65320401,23817
65321740,23819
65323079,23823
65324418,23820
65325757,23824
65327097,23820
65328436,23825
65329775,23831
65331113,23821
65332453,23802
65333793,23823
65335132,23827
65336471,23837
65337810,23824
65339149,23825
65340489,23836
65341828,23815
65343168,23824
65344507,23835
65345847,23829
65347187,23839
65348526,23834
65349865,23826
65351204,23843
65352544,23832
65353884,23844
65355223,23836
65356562,23830
65357901,23841
65359240,23834
65360578,23818
65361918,23838
65363257,23836
65364596,23847
65365934,23850
65367274,23851
65368613,23849
65369952,23840
65371291,23845
65372629,23845
65373969,23841
65375308,23852
65376647,23836
65377986,23849
65379325,23854
65380664,23850
65382002,23852
65383342,23848
65384681,23851
65386020,23848
65387360,23856
65388699,23848
65390038,23847
65391377,23856
65392715,23856
65394055,23850
65395395,23862
65396734,23845
65399338,23849
65400679,23864
65402019,23857
65403358,23856
65404697,23863
65406037,23857
65407376,23862
65408715,23849
65410056,23867
65411395,23867
65412734,23868
65414073,23863
65415411,23867
65416751,23863
65418090,23865
65419429,23860
65420769,23836
65422108,23865
65423447,23856
65424786,23868
65426507,23865
65427847,23870
65429190,23861
65430530,23852
65431872,23852
65433211,23863
65434550,23859
65435889,23846
65437228,23851
65438568,23845
65439907,23848
65441246,23850
65442586,23848
65443925,23834
65445264,23832
65446603,23835
65447942,23836
65449281,23822
65450619,23818
65451958,23822
65453298,23813
65454638,23813
65455976,23816
65457316,23805
65458656,23804
65459995,23800
65461334,23800
65462673,23788
65464012,23798
65465351,23791
65466690,23782
65468028,23779
65469367,23865
65470706,23781
65472046,23770
65473385,23768
65474724,23757
65476062,23753
65477402,23754
65478741,23738
65480080,23744
65481420,23744
65482758,23734
65484097,23731
65485436,23730
65486776,23718
65488115,23726
65489454,23727
65490793,23704
65492132,23714
65493471,23698
65494810,23705
65496149,23702
65497489,23813
65498828,23708
65500167,23685
65501507,23698
65502848,23676
65504187,23677
65505526,23681
65506864,23672
65508204,23682
65509544,23678
65510883,23677
65512220,23670
65513561,23666
65514900,23655
65516239,23667
65517578,23656
65518917,23658
65520256,23658
65521595,23651
65522934,23658
65524273,23656
65525612,23734
65526952,23648
65528291,23640
65529630,23642
65530969,23640
65532308,23646
65534912,23652
65536252,23639
65537592,23642
65538933,23641
65540273,23634
65541612,23638
65542951,23640
65544290,23637
65545628,23640
65546968,23644
65548306,23641
65549646,23626
65550984,23631
65552324,23649
65553663,23635
65555002,23643
65556340,23635
65557680,23666
65559019,23639
65560358,23625
65561698,23636
65563037,23637
65564377,23632
65565716,23635
65567055,23630
65568394,23633
65569733,23648
65571072,23629
65572410,23637
65573750,23640
65575089,23636
65576428,23647
65577766,23639
65579105,23633
65580445,23641
65582164,23633
65583505,23646
65584846,23644
65586188,23640
65587528,23641
65588868,23639
65590207,23643
65591546,23645
65592884,23642
65594224,23645
65595564,23641
65596902,23647
65598241,23655
65599581,23651
65600920,23644
65602259,23637
65603598,23647
65604937,23648
65606276,23647
65607614,23649
65608953,23645
65610293,23654
65611632,23658
65612970,23661
65614310,23654
65615648,23650
65616988,23653
65618327,23658
65619666,23662
65621005,23649
65622344,23655
65623683,23660
65625022,23655
65626361,23660
65627700,23656
65629039,23645
65630378,23655
65631717,23658
65633056,23653
65634395,23663
65635734,23653
65637073,23665
65638412,23654
65639750,23655
65641090,23661
65642429,23654
65643768,23661
65645107,23665
65646446,23655
65647785,23665
65649124,23661
65650463,23663
65651802,23671
65653141,23663
65654482,23678
65655821,23668
65657160,23668
65658500,23668
65659841,23675
65661180,23685
65662519,23676
65663858,23649
65665197,23666
65666537,23667
65667877,23681
65670482,23671
65671822,23679
65673161,23682
65674499,23677
65675838,23675
65677178,23675
65678517,23684
65679856,23686
65681194,23680
65682534,23681
65683873,23690
65685211,23684
65686551,23694
65687890,23689
65689229,23686
65690567,23690
65691907,23694
65693245,23692
65694585,23688
65695924,23688
65697263,23689
65698602,23684
65699940,23700
65701280,23687
65702620,23700
65703959,23691
65705298,23693
65706636,23693
65707976,23697
65709315,23703
65710654,23696
65711992,23702
65713332,23693
65714671,23706
65716010,23700
65717350,23694
65718688,23696
65720028,23696
65721367,23709
65722707,23706
65724046,23680
65725384,23707
65726724,23701
65728063,23722
65729402,23711
65730740,23705
65732080,23708
65733418,23703
65734757,23712
65736097,23713
65737436,23716
65739146,23707
65740487,23712
65741829,23704
65743169,23707
65744510,23708
65745848,23722
65747188,23710
65748527,23707
65749866,23711
65751206,23714
65752544,23703
65753884,23711
65755223,23710
65756562,23716
65757901,23707
65759240,23721
65760578,23719
65761917,23712
65763257,23714
65764598,23708
65765937,23716
65767276,23721
65768614,23718
65769954,23713
65771293,23715
65772632,23718
65773972,23705
65775311,23725
65776650,23705
65777989,23720
65779328,23722
65780667,23716
65782006,23726
65783345,23716
65784684,23711
65786023,23722
65787362,23711
65788700,23717
65790040,23731
65791379,23712
65792719,23724
65794058,23712
65795398,23716
65796736,23726
65798076,23712
65799414,23726
65800753,23716
65802093,23721
65803431,23717
65806037,23718
65807377,23726
65808716,23718
65810055,23717
65811394,23725
65812733,23711
65814073,23715
65815413,23724
65816754,23721
65818093,23725
65819432,23719
65820770,23714
65822110,23730
65823449,23720
65824789,23725
65826129,23717
65827468,23726
65828808,23728
65830147,23720
65831486,23711
65832826,23727
65834165,23730
65835504,23733
65836843,23720
65838182,23737
65839521,23733
65840860,23721
65842199,23729
65843538,23727
65844878,23729
65846217,23735
65847556,23734
65848895,23726
65850233,23737
65851573,23725
65852911,23735
65854251,23736
65857249,23768
65858589,23757
65859929,23754
65861268,23767
65862607,23763
65863946,23769
65865284,23765
65866624,23757
65867963,23764
65869303,23767
65870642,23770
65871981,23761
65873320,23761
65874659,23768
65875999,23770
65877338,23777
65878677,23778
65880016,23767
65881355,23764
65882695,23769
65884033,23774
65885373,23784
65886712,23778
65888051,23786
65889389,23777
65890729,23774
65892068,23785
65893788,23774
65895129,23780
65896469,23780
65897811,23776
65899151,23782
65900494,23785
65901833,23783
65903172,23780
65904512,23788
65905851,23791
65907190,23784
65908530,23792
65909868,23792
65911208,23792
65912547,23788
65913887,23781
65915225,23793
65916565,23789
65917904,23792
65919243,23797
65920582,23777
65921921,23794
65923260,23795
65924599,23796
65925938,23796
65927277,23797
65928616,23792
65929954,23787
65931294,23791
65932633,23796
65933972,23798
65935311,23801
65936650,23806
65937989,23793
65939328,23805
65940667,23799
65943271,23805
65944611,23801
65945950,23797
65947288,23810
65948628,23798
65949967,23797
65951306,23784
65952645,23799
65953984,23803
65955323,23798
65956662,23800
65958001,23805
65959340,23808
65960678,23807
65962018,23803
65963357,23796
65964697,23802
65966036,23813
65967375,23801
65968714,23810
65970054,23807
65971394,23809
65972735,23810
65974074,23803
65975412,23807
65976752,23799
65978092,23808
65979430,23803
65980769,23798
65982109,23808
65983448,23805
65984786,23799
65986126,23808
65987465,23808
65988804,23814
65990142,23812
65991482,23807
65992821,23815
65994160,23812
65995499,23805
65996838,23815
65998177,23804
65999516,23822
66000854,23815
66002194,23818
66003533,23814
66004873,23815
66006211,23821
66007551,23821
66008890,23813
66010229,23816
66011567,23814
66012906,23823
66014246,23811
66015584,23821
66016924,23821
66018262,23812
66019602,23821
66020941,23818
66022279,23811
66023619,23824
66024957,23822
66026297,23818
66027635,23829
66028975,23829
66030313,23818
66031653,23814
66032991,23823
66034331,23824
66035670,23828
66037009,23824
66038349,23815
66039689,23826
66041028,23823
66042367,23829
66043706,23819
66045045,23826
66046385,23830
66047724,23827
66049063,23824
66050786,23830
66052127,23824
66053467,23820
66054809,23843
66056150,23834
66057489,23831
66058828,23829
66060167,23828
66061506,23837
66062846,23835
66064185,23823
66065524,23828
66066863,23845
66068202,23842
66069541,23837
66070881,23842
66072219,23840
66073559,23837
66074898,23844
66076237,23841
66078841,23847
66080181,23836
66081520,23851
66082859,23842
66084198,23842
66085537,23848
66086876,23842
66088215,23819
66089553,23843
66090893,23842
66092232,23840
66093570,23845
66094910,23842
66096250,23842
66097589,23842
66098928,23841
66100267,23845
66101605,23846
66102945,23847
66104284,23846
66105623,23832
66106962,23839
66108301,23827
66109640,23837
66110980,23827
66112319,23826
66113658,23830
66114997,23826
66116336,23827
66117675,23829
66119014,23819
66120353,23808
66121692,23808
66123031,23803
66124371,23802
66125709,23805
66127049,23793
66128389,23794
66129728,23791
66131067,23804
66132406,23788
66133745,23781
66135084,23785
66136423,23774
66137762,23773
66139102,23759
66140441,23772
66141780,23770
66143119,23757
66144458,23751
66145797,23748
66147136,23846
66148474,23747
66149814,23732
66151153,23740
66152491,23731
66153832,23731
66155171,23728
66156510,23716
66157850,23713
66159189,23723
66160528,23708
66161868,23705
66163207,23707
66164547,23701
66165887,23704
66167227,23683
66168565,23687
66169905,23683
66171244,23681
66172583,23683
66173923,23678
66175262,23788
66176601,23670
66177940,23666
66179280,23667
66180620,23667
66181959,23662
66183298,23656
66184637,23658
66185976,23655
66187315,23655
66188654,23651
66189992,23646
66191331,23636
66192671,23637
66194010,23638
66195348,23644
66196688,23636
66198027,23633
66199366,23634
66200705,23638
66202044,23633
66203383,23631
66204722,23630
66206439,23634
66207781,23631
66209121,23622
66210462,23637
66211803,23629
66214409,23616
66215748,23624
66217087,23614
66218427,23632
66219765,23617
66221105,23611
66222444,23624
66223783,23616
66225121,23621
66226461,23619
66227799,23615
66229139,23621
66230478,23619
66231817,23632
66233156,23626
66234496,23622
66235836,23617
66237175,23616
66238514,23627
66239853,23625
66241192,23619
66242531,23618
66243869,23630
66245209,23621
66246547,23626
66247887,23619
66249226,23622
66250565,23626
66251903,23629
66253242,23630
66254582,23627
66255922,23629
66257261,23634
66258600,23620
66259939,23635
66261278,23626
66262617,23629
66263956,23635
66265295,23631
66266634,23635
66267972,23628
66269312,23624
66270651,23639
66271990,23642
66273329,23627
66274667,23638
66276007,23632
66277346,23629
66278686,23636
66280026,23626
66281365,23641
66282704,23636
66284044,23619
66285383,23633
66286722,23629
66288060,23642
66289400,23630
66290739,23642
66292078,23647
66293416,23634
66294756,23630
66296095,23644
66297433,23644
66298773,23653
66300112,23643
66301451,23642
66302790,23643
66304129,23641
66305468,23644
66306806,23640
66308146,23639
66309486,23646
66310825,23645
66312164,23652
66313504,23638
66314843,23646
66316182,23657
66317521,23645
66318861,23652
66320199,23654
66321539,23638
66322878,23645
66324217,23650
66325556,23652
66326896,23646
66328235,23648
66329573,23648
66330913,23656
66332252,23653
66333591,23668
66334930,23654
66336269,23661
66337608,23652
66338947,23655
66340286,23664
66341626,23660
66342965,23659
66344304,23661
66345644,23662
66346983,23660
66349586,23659
66350925,23665
66352265,23661
66353604,23655
66354942,23667
66356282,23654
66357620,23660
66358959,23668
66360299,23651
66361638,23664
66362977,23668
66364698,23661
66366038,23677
66367381,23668
66368721,23672
66370063,23666
66371402,23646
66372740,23670
66374080,23669
66375419,23678
66376759,23670
66378098,23675
66379437,23674
66380776,23672
66382116,23668
66383455,23678
66384794,23676
66386133,23674
66387472,23674
66388811,23670
66390150,23687
66391490,23683
66392829,23688
66394168,23679
66395507,23659
66396847,23678
66398186,23688
66399525,23674
66400865,23676
66402205,23670
66403544,23675
66404883,23683
66406222,23678
66407561,23683
66408900,23673
66410238,23679
66411578,23684
66412917,23686
66414256,23691
66415595,23683
66416934,23691
66418273,23680
66419612,23683
66420951,23680
66422291,23674
66423630,23684
66424969,23681
66426307,23689
66427646,23686
66428986,23687
66430325,23692
66431664,23682
66433003,23679
66434344,23694
66435685,23680
66437025,23685
66438364,23694
66439703,23680
66441043,23690
66442383,23687
66443722,23695
66445061,23698
66446400,23685
66447739,23698
66449077,23692
66450417,23683
66451756,23682
66453095,23697
66454434,23687
66455773,23694
66457111,23698
66458450,23699
66459790,23691
66461129,23693
66462469,23699
66463808,23701
66465147,23694
66466486,23692
66467825,23686
66469164,23696
66470503,23690
66471842,23702
66473181,23695
66474520,23693
66475859,23693
66477198,23699
66478537,23704
66479876,23696
66481215,23699
66482554,23695
66485159,23695
66486499,23707
66487838,23704
66489177,23696
66490516,23695
66491855,23704
66493194,23693
66494533,23705
66495872,23699
66497210,23704
66498551,23709
66499890,23702
66501229,23708
66502568,23699
66503907,23704
66505246,23698
66506584,23703
66507923,23708
66509263,23700
66510602,23714
66511941,23698
66513280,23710
66514619,23710
66515958,23704
66517297,23702
66518636,23719
66520354,23712
66522110,23731
66523452,23721
66524791,23728
66526132,23727
66527473,23724
66528811,23724
66530151,23725
66531490,23721
66532830,23727
66534169,23725
66535508,23720
66536847,23722
66538186,23720
66539525,23729
66540863,23728
66542202,23732
66543541,23727
66544881,23727
66546220,23732
66547559,23724
66548898,23725
66550237,23737
66551576,23722
66552915,23718
66554253,23723
66555593,23726
66556932,23737
66558270,23735
66559609,23720
66560948,23729
66562288,23727
66563628,23735
66564967,23736
66566306,23721
66567645,23724
66568983,23726
66570323,23735
66571661,23724
66573001,23734
66574340,23735
66575678,23728
66577018,23733
66578357,23739
66579696,23734
66581036,23738
66582375,23730
66583714,23744
66585053,23737
66586392,23737
66587730,23744
66589070,23736
66590409,23744
66591749,23732
66593087,23738
66594427,23743
66595766,23731
66597106,23749
66598445,23745
66599784,23746
66601123,23737
66602462,23749
66603801,23739
66605140,23742
66606479,23743
66607818,23754
66609157,23756
66610495,23738
66611834,23746
66613174,23745
66614513,23751
66615851,23755
66617191,23746
66618530,23757
66621133,23738
66622474,23758
66623813,23743
66625154,23738
66626492,23758
66627832,23755
66629171,23750
66630510,23755
66631849,23756
66633188,23760
66634527,23758
66635866,23747
66637204,23755
66638543,23752
66639883,23752
66641222,23755
66642561,23748
66643900,23756
66645239,23770
66646578,23748
66647918,23763
66649257,23759
66650596,23747
66651935,23760
66653274,23756
66654613,23738
66655952,23751
66657291,23762
66658630,23757
66659969,23756
66661308,23765
66662647,23766
66663987,23762
66665326,23761
66666665,23762
66668004,23765
66669343,23764
66670681,23763
66672021,23771
66673360,23761
66674699,23757
66676416,23766
66677757,23751
66679097,23774
66680439,23762
66681780,23772
66683119,23771
66684457,23763
66685796,23771
66687136,23765
66688474,23782
66689815,23775
66691154,23760
66692493,23774
66693832,23764
66695171,23769
66696509,23767
66697849,23771
66699188,23775
66700527,23771
66701866,23784
66703205,23772
66704544,23765
66705882,23777
66707221,23765
66708561,23779
66709902,23775
66711241,23770
66712580,23786
66713919,23773
66715258,23780
66716597,23782
66717937,23780
66719276,23783
66720615,23783
66721953,23779
66723293,23784
66724631,23794
66725971,23776
66727310,23784
66728649,23781
66729988,23782
66731327,23779
66732666,23775
66734005,23795
66735344,23778
66736683,23794
66738022,23781
66739360,23783
66740699,23788
66742039,23773
66743378,23792
66744717,23781
66746056,23791
66747396,23787
66748735,23785
66750075,23784
66751414,23784
66752754,23785
66754094,23798
66756699,23782
66758039,23795
66759378,23787
66760717,23790
66762056,23801
66763395,23790
66764734,23790
66766072,23788
66767412,23796
66768751,23802
66770090,23800
66771429,23801
66772770,23801
66774109,23796
66775448,23802
66776787,23798
66778126,23793
66779465,23796
66780804,23801
66782142,23792
66783482,23800
66784820,23805
66786160,23799
66787500,23811
66788839,23798
66790178,23808
66791517,23799
66792855,23785
66794195,23808
66795534,23797
66796873,23807
66798212,23806
66799550,23806
66800888,23811
66802228,23807
66803567,23808
66804905,23811
66806245,23808
66807583,23811
66808923,23799
66810262,23803
66811600,23812
66812940,23813
66814279,23819
66815619,23813
66816958,23804
66818299,23813
66819639,23816
66820979,23793
66822318,23812
66823657,23815
66824996,23811
66826334,23815
66827674,23820
66829013,23825
66830352,23813
66831691,23818
66833411,23818
66834752,23821
66836093,23821
66837435,23816
66838777,23819
66840117,23817
66841456,23817
66842795,23817
66844134,23820
66845474,23824
66846813,23813
66848152,23818
66849492,23815
66850831,23811
66852170,23819
66853509,23822
66854848,23828
66856187,23820
66857526,23822
66858865,23833
66860204,23821
66861544,23828
66862883,23820
66864222,23824
66865562,23831
66866901,23825
66868240,23834
66869579,23833
