55530509,46603,0
55533668,49500,0
55536866,53773,0
55540041,55261,0
55542587,54077,0
55545750,51804,0
55548853,53020,0
55551942,56893,0
55555020,59774,0
55558131,58686,0
55561247,54477,0
55564339,51516,0
55567385,52332,0
55571165,53533,0
55574302,51244,0
55577339,46859,0
55580434,44346,0
55583604,45083,0
55586698,44922,0
55589811,41706,0
55592900,36216,0
55595994,32199,0
55599104,30247,0
55602197,28727,0
55605329,25894,0
55609107,22581,0
55612190,22165,0
55615319,22421,0
55618357,21493,0
55621520,19668,0
55624618,17908,0
55627727,18820,0
55630829,21461,0
55633921,22597,0
55637014,21381,0
55640111,20148,0
55643232,19076,0
55646975,21637,0
55650117,23061,0
55653236,22773,0
55656329,22005,0
55659437,21349,0
55662592,23157,0
55665677,25110,0
55668766,24630,0
55671866,23941,0
55674948,22533,0
55678721,24886,0
55681836,26806,0
55684949,26342,0
55688041,25238,0
55691143,23109,0
55694274,23253,0
55697327,25590,0
55700384,26902,0
55704171,25766,0
55707257,23573,0
55710339,22757,0
55713412,25094,0
55716533,26054,0
55719627,25190,0
55722728,24069,0
55725839,23125,0
55728962,25078,0
55732047,27558,0
55735151,28855,0
55738252,28198,0
55742011,27814,0
55745091,29527,0
55748210,34328,0
55751345,40121,0
55754384,43242,0
55757538,42442,0
55760611,40249,0
55763708,39913,0
55766870,42826,0
55769948,46027,0
55773076,47531,0
55776164,46267,0
55779960,46411,0
55783076,50172,0
55786161,55453,0
55789283,59310,0
55792334,60126,0
55795436,59502,0
55798590,61871,0
55801691,64287,0
55804807,64463,0
55807890,64447,0
55811662,64367,0
55814748,64399,0
55817847,64447,0
55820926,64591,0
55824006,64543,0
55827086,64623,0
55830195,64639,0
55833304,64639,0
55836348,64623,0
55839447,64703,0
55841949,64543,0
55845043,64591,0
55848142,64463,0
55851256,64655,0
55854310,64575,0
55858073,64639,0
55861214,64703,0
55864328,64639,0
55867360,64655,0
55870453,64383,0
55873608,64575,0
55876719,64559,0
55879808,64303,0
55882896,64287,0
55885958,64671,0
55889046,64623,0
55892129,64671,0
55895251,64719,0
55898339,64719,0
55901385,64655,0
55904473,64703,0
55907606,64655,0
55910694,64719,0
55914487,64607,0
55917588,64591,0
55920672,64575,0
55923764,64671,0
55926891,64831,0
55929985,64911,0
55933079,64463,0
55936176,65071,0
55939303,64607,0
55942337,64591,0
55946158,64767,0
55949242,64767,0
55952322,64687,0
55955362,64511,0
55958486,64607,0
55961603,64719,0
55964696,64623,0
55967793,64863,0
55970875,64815,0
55974022,64687,0
55977805,64767,0
55980911,64751,0
55984018,64911,0
55987123,64479,0
55990241,64527,0
55993320,64479,0
55996422,64671,0
55999556,64607,0
56002605,64607,0
56005695,64383,0
56008773,64575,0
56011874,64351,0
56014949,64415,0
56018028,64287,0
56021137,64543,0
56024275,64607,0
56027317,64543,0
56030389,64287,0
56033532,64383,0
56036627,64543,0
56039712,64543,0
56042797,64431,0
56045880,64463,0
56048989,64607,0
56052073,64527,0
56055165,64447,0
56058280,64431,0
56061319,64623,0
56064404,64399,0
56068208,64559,0
56071312,64543,0
56074356,64527,0
56077522,64447,0
56081289,64479,0
56084331,64527,0
56087428,64607,0
56090590,64431,0
56093716,64287,0
56096862,64367,0
56099934,64575,0
56103019,64207,0
56106083,64175,0
56109172,64175,0
56112305,63823,0
56115355,63743,0
56118535,63727,0
56121644,63711,0
56124767,63055,0
56127866,61182,0
56130941,59918,0
56134046,61278,0
56137143,62815,0
56140264,63455,0
56143307,61198,0
56146415,57870,0
56149522,57293,0
56153314,59614,0
56156366,61150,0
56159445,60158,0
56162592,57390,0
56165703,56733,0
56168802,58078,0
56171884,59118,0
56174958,57598,0
56178029,54413,0
56181128,52732,0
56184243,53389,0
56187320,55245,0
56191108,54925,0
56194221,51868,0
56197304,49548,0
56200401,49564,0
56203533,51276,0
56206619,52204,0
56209689,50492,0
56212818,47387,0
56216636,47563,0
56219720,49724,0
56222815,51068,0
56225909,49115,0
56228995,45467,0
56232093,43882,0
56235241,45050,0
56238327,48059,0
56241363,50060,0
56244448,50844,0
56248330,54925,0
56251376,61342,0
56254524,64159,0
56257635,64255,0
56260737,64303,0
56263827,64239,0
56266942,64143,0
56270018,60270,0
56273134,50444,0
56276220,39017,0
56279951,30279,0
56283062,32199,0
56286837,39433,0
56289924,42970,0
56293020,42042,0
56296092,37593,0
56299247,36008,0
56302333,36696,0
56305406,37865,0
56308563,37353,0
56311680,34728,0
56314785,33688,0
56317890,35784,0
56320971,37833,0
56324754,37305,0
56327857,34360,0
56330946,32920,0
56334044,33992,0
56337109,36696,0
56340220,36424,0
56343348,31415,0
56346386,24598,0
56349523,20629,0
56352608,19748,0
56355704,19988,0
56358821,17828,0
56361890,13283,0
56364981,10578,0
56368078,11362,0
56371184,13075,0
56374304,13123,0
56377360,9826,0
56381191,6545,0
56384320,7761,0
56387366,10626,0
56390471,11826,0
56393596,9698,0
56396672,6865,0
56399753,8226,0
56402815,11970,0
56405904,15363,0
56408982,15587,0
56412077,11938,0
56415157,9218,0
56418283,7873,0
56421308,5313,0
56424417,480,0
56427549,352,0
56430646,96,0
56433766,176,0
56436840,288,0
56439915,192,0
56443021,160,0
56446122,384,0
56449232,112,0
56452309,208,0
56455380,160,0
56459214,128,0
56462325,240,0
56465371,272,0
56468468,240,0
56471609,144,0
56474700,352,0
56477800,224,0
56480892,144,0
56483992,144,0
56487088,160,0
56490107,48,0
56493215,80,0
56496320,224,0
56499447,208,0
56502604,320,0
56505727,512,0
56508830,336,0
56511896,224,0
56515685,176,0
56518782,592,0
56521913,448,0
56525011,176,0
56528100,128,0
56531231,368,0
56534351,400,0
56537411,208,0
56540556,256,0
56543653,128,0
56546757,224,0
56549877,336,0
56552959,160,0
56556050,272,0
56559817,192,0
56562933,128,0
56566063,496,0
56569134,160,0
56572251,144,0
56575326,400,0
56578368,128,0
56581526,224,0
56584612,432,0
56587691,352,0
56590809,528,0
56593903,176,0
56596982,368,0
56600108,128,0
56603251,160,0
56606341,528,0
56609435,80,0
56612571,192,0
56615648,48,0
56618744,336,0
56621832,176,0
56625599,128,0
56628668,128,0
56631796,128,0
56634892,496,0
56637981,160,0
56641059,320,0
56644167,160,0
56647282,656,0
56651057,1424,0
56654137,2512,0
56657253,3232,0
56660317,4385,0
56663402,6145,0
56666540,8033,0
56669609,7905,0
56672686,6961,0
56675771,5633,0
56678866,6641,0
56681944,8866,0
56685022,9842,0
56688101,9650,0
56691216,8194,0
56695009,8770,0
56698083,10914,0
56701752,12387,0
56710017,10146,0
56713094,11778,0
56716224,14339,0
56719312,15443,0
56722457,14291,0
56725621,12451,0
56728714,13171,0
56731842,15891,0
56734932,17652,0
56738013,17796,0
56741098,16019,0
56744218,15651,0
56747340,16788,0
56750375,18724,0
56754228,18404,0
56757337,16724,0
56760385,16195,0
56763476,18100,0
56766602,21557,0
56769686,22485,0
56772773,21749,0
56775892,20388,0
56779696,20533,0
56782805,22885,0
56785919,24101,0
56789026,23253,0
56792163,21829,0
56795284,22021,0
56798324,24982,0
56801426,28246,0
56804600,30199,0
56807697,29095,0
56810779,27702,0
56813867,28198,0
56816969,31031,0
56820056,33592,0
56823169,33864,0
56826295,32023,0
56829318,30567,0
56832431,31191,0
56835573,32535,0
56838652,32615,0
56841728,31159,0
56844830,30567,0
56847944,31751,0
56851041,35208,0
56854135,37209,0
56857260,36568,0
56860331,34584,0
56863415,34152,0
56867236,35752,0
56870346,37705,0
56873377,37097,0
56876474,35512,0
56879614,34520,0
56882720,36296,0
56885797,37897,0
56888917,38569,0
56892029,36712,0
56895116,35720,0
56898236,36008,0
56901333,38649,0
56904420,41226,0
56907578,41226,0
56910685,40009,0
56914397,39593,0
56918180,42538,0
56921319,45387,0
56924365,46667,0
56927468,46059,0
56930608,46699,0
56933693,49452,0
56936829,53068,0
56939904,54429,0
56942986,53180,0
56946041,50236,0
56949142,50476,0
56952233,54941,0
56955355,58894,0
56958396,60398,0
56961550,58446,0
56965277,57069,0
56968325,57998,0
56971423,59662,0
56974576,59246,0
56977655,56765,0
56980749,54797,0
56983867,55949,0
56986950,58782,0
56990023,60414,0
56993121,59166,0
56996241,56237,0
56999320,55469,0
57003177,57966,0
57006291,59406,0
57009337,58686,0
57012444,56029,0
57015612,55453,0
57018669,57582,0
57021779,59982,0
57024875,59854,0
57028647,55741,0
57031733,53709,0
57034834,54877,0
57037944,57918,0
57041047,60430,0
57044148,61519,0
57047280,63999,0
57050351,64495,0
57053432,64687,0
57056587,64511,0
57059712,64623,0
57062832,64543,0
57065893,64511,0
57068990,64607,0
57072081,64623,0
57075150,64495,0
57078256,64143,0
57081336,61070,0
57084398,57614,0
57087545,56077,0
57090657,53853,0
57093765,51116,0
57097556,47675,0
57100658,47851,0
57103737,49660,0
57106878,50460,0
57109960,49035,0
57113049,46571,0
57116135,46059,0
57119247,47947,0
57122343,49452,0
57125395,48907,0
57129158,45547,0
57132273,45050,0
57136063,46699,0
57139161,48059,0
57142290,46507,0
57145318,43594,0
57148420,42426,0
57151566,44490,0
57154650,47867,0
57157745,48299,0
57161534,45643,0
57164611,44010,0
57167706,45723,0
57170783,47611,0
57173894,48235,0
57176992,45995,0
57180101,43818,0
57183217,44250,0
57187039,48075,0
57190149,49900,0
57193273,48667,0
57196323,46507,0
57199424,46603,0
57202568,48907,0
57205639,49948,0
57208727,49324,0
57211814,46523,0
57214905,45611,0
57218033,46875,0
57221103,49228,0
57224215,49596,0
57227351,47403,0
57230400,44986,0
57233576,45707,0
57236677,47755,0
57239772,48363,0
57242846,46571,0
57245919,43194,0
57249004,42218,0
57252098,44010,0
57255195,45595,0
57258339,45067,0
57261373,42250,0
57264474,40841,0
57267595,42186,0
57271362,45050,0
57274473,45291,0
57277582,42778,0
57280638,41338,0
57283714,42106,0
57286819,44026,0
57289913,44730,0
57293006,43162,0
57296782,39737,0
57299890,40073,0
57303007,42138,0
57306111,43402,0
57309259,41818,0
57312333,38969,0
57315414,37897,0
57318573,39225,0
57321683,40793,0
57324784,40521,0
57327901,37721,0
57330968,35912,0
57334097,36905,0
57337210,39001,0
57340942,39817,0
57344025,37177,0
57347108,35112,0
57350230,35752,0
57353313,38233,0
57356417,39657,0
57359571,38297,0
57362663,35800,0
57365728,35640,0
57368828,37849,0
57372616,39945,0
57375701,38905,0
57378831,36568,0
57381927,35944,0
57385016,38169,0
57388146,40345,0
57391251,40121,0
57394337,37801,0
57397395,35992,0
57400562,37001,0
57404323,39737,0
57407398,40425,0
57410461,38441,0
57413603,36248,0
57416713,36840,0
57419850,38985,0
57422945,40537,0
57426028,39449,0
57429807,36856,0
57432914,37337,0
57436007,39561,0
57439089,41210,0
57442185,40457,0
57445306,37993,0
57448345,36953,0
57451449,38841,0
57454589,41658,0
57457671,42362,0
57461433,39785,0
57464609,38921,0
57467725,40825,0
57470841,43786,0
57473923,45339,0
57477012,43754,0
57480082,41546,0
57483170,41834,0
57486273,44378,0
57489343,45659,0
57492374,44586,0
57495465,41530,0
57498602,40713,0
57501691,42186,0
57504770,44426,0
57507881,44650,0
57510974,42186,0
57514080,39929,0
57517179,40537,0
57520298,43066,0
57523353,44266,0
57526463,42650,0
57529607,39737,0
57532706,39737,0
57535810,42234,0
57538900,44522,0
57541987,43978,0
57545062,40777,0
57548130,39321,0
57551879,41546,0
57554964,43594,0
57558043,43418,0
57561129,40697,0
57564916,38809,0
57567983,40409,0
57571047,42906,0
57574186,43146,0
57577300,40537,0
57580321,38201,0
57583430,38985,0
57586595,41370,0
57589706,43194,0
57592784,41898,0
57595294,39641,0
57598349,38345,0
57601458,39737,0
57604596,42314,0
57607662,42698,0
57610769,40153,0
57613842,38057,0
57616937,38585,0
57620016,41338,0
57623120,42410,0
57626222,41082,0
57629332,37929,0
57632373,37529,0
57635479,39209,0
57638593,41466,0
57641694,40681,0
57644799,37897,0
57648599,36184,0
57651711,38121,0
57654792,40986,0
57657889,41690,0
57661005,39513,0
57664123,37481,0
57667239,38393,0
57670347,40505,0
57673381,41178,0
57676502,39321,0
57680321,36312,0
57683357,37449,0
57686461,40041,0
57689592,41706,0
57692664,39209,0
57695791,34872,0
57698903,32295,0
57701993,32952,0
57705076,34360,0
57708140,33944,0
57711272,30743,0
57714354,28262,0
57717416,28775,0
57720569,30519,0
57723659,30823,0
57726770,28150,0
57730582,24598,0
57733668,24902,0
57736763,26694,0
57739875,27782,0
57742949,26406,0
57746015,23605,0
57749086,22837,0
57752163,24726,0
57755290,25782,0
57758360,24742,0
57762074,20949,0
57765197,21221,0
57768333,25302,0
57771363,30727,0
57774435,35384,0
57777602,38873,0
57781361,43738,0
57784427,50124,0
57787567,55981,0
57790646,54925,0
57793708,46315,0
57796808,34104,0
57799924,25766,0
57803025,22373,0
57806094,22181,0
57809175,22613,0
57812967,23381,0
57816072,25398,0
57819175,28246,0
57822303,29191,0
57825358,26886,0
57828458,22565,0
57831634,20645,0
57834708,22085,0
57837825,25078,0
57840943,25878,0
57844026,23829,0
57847128,21861,0
57850228,22885,0
57853356,25318,0
57856399,26582,0
57859557,25158,0
57862653,22773,0
57866404,23429,0
57869551,26070,0
57872662,27830,0
57875743,26902,0
57878831,24533,0
57881910,23877,0
57885023,26438,0
57888106,29335,0
57891217,30135,0
57894336,28454,0
57897379,27286,0
57900502,29079,0
57903617,31943,0
57906706,34120,0
57909798,32663,0
57912916,30231,0
57916722,30679,0
57919835,33304,0
57922921,34824,0
57926041,33864,0
57929112,30679,0
57932247,30007,0
57935356,32023,0
57938420,34136,0
57941532,33864,0
57944637,30679,0
57947726,29047,0
57955948,33832,0
57959067,33256,0
57962180,30471,0
57965245,29399,0
57969102,31815,0
57972201,33576,0
57975311,32583,0
57979072,29111,0
57982203,28614,0
57985327,30455,0
57988386,32936,0
57991557,32631,0
57994645,30215,0
57997742,28823,0
58000855,30375,0
58003968,33144,0
58007062,33928,0
58010172,31751,0
58013282,29335,0
58016325,29239,0
58019434,31431,0
58022587,33160,0
58025678,31767,0
58028833,28422,0
58031924,26966,0
58035030,28518,0
58038123,30407,0
58041249,30311,0
58045029,26630,0
58048083,24886,0
58051202,26406,0
58054327,28294,0
58057391,28919,0
58060476,26550,0
58063620,24005,0
58066681,24646,0
58069774,27046,0
58072881,28646,0
58075984,27494,0
58079087,24886,0
58082867,24790,0
58085961,27382,0
58089030,29351,0
58092109,28839,0
58095231,26214,0
58098347,24982,0
58102111,27686,0
58105209,30119,0
58108315,30279,0
58111358,27798,0
58114476,26390,0
58117613,27654,0
58120715,30087,0
58123830,30871,0
58126939,28679,0
58130023,26134,0
58133810,27030,0
58136897,29623,0
58139982,31079,0
58143064,29511,0
58146141,26822,0
58149231,26934,0
58152345,29143,0
58155383,31239,0
58158464,30775,0
58161614,28262,0
58164674,26774,0
58167764,28711,0
58170851,31271,0
58173948,32135,0
58177039,30151,0
58180124,27686,0
58183216,28230,0
58186347,30759,0
58190113,32583,0
58193266,31015,0
58196328,28294,0
58199431,28566,0
58202584,31207,0
58205675,33400,0
58208762,32679,0
58211854,29639,0
58214934,28374,0
58218700,31255,0
58221789,33976,0
58224897,33672,0
58227997,30823,0
58231099,29159,0
58234229,30583,0
58238026,33672,0
58241108,34104,0
58244214,31591,0
58247321,29575,0
58250357,30919,0
58253469,33752,0
58256612,34792,0
58259658,33016,0
58262752,30087,0
58265859,29639,0
58269635,32599,0
58272742,34184,0
58275838,33256,0
58278930,30471,0
58282065,29687,0
58285152,31975,0
58288289,34248,0
58291354,34440,0
58294464,31559,0
58297624,29703,0
58300715,31111,0
58303814,33464,0
58306909,34504,0
58309972,32375,0
58313079,29943,0
58316151,30231,0
58319945,33000,0
58323070,34792,0
58326155,33064,0
58329277,30199,0
58332366,29607,0
58335418,32471,0
58338594,35320,0
58341656,35160,0
58344773,32984,0
58347904,31927,0
58350986,33544,0
58354072,36184,0
58357149,36840,0
58360258,34760,0
58363358,32215,0
58366446,32311,0
58370283,35480,0
58373361,37065,0
58376415,36088,0
58379567,33560,0
58382653,33224,0
58385726,34936,0
58388865,36328,0
58391938,34968,0
58395037,31671,0
58398131,29687,0
58401887,31591,0
58405030,34136,0
58408114,33992,0
58411224,31159,0
58414337,28759,0
58417393,29271,0
58420545,31319,0
58423647,31703,0
58426730,29239,0
58429836,26342,0
58432907,26406,0
58435984,29063,0
58439084,30951,0
58442174,30215,0
58445285,27350,0
58448351,26022,0
58451453,27526,0
58455298,29767,0
58458355,29831,0
58461446,28294,0
58464606,29863,0
58467695,35624,0
58470773,43866,0
58473863,50764,0
58476969,54445,0
58480037,56557,0
58483097,56989,0
58486180,54525,0
58489280,47499,0
58493066,33912,0
58496177,24886,0
58499297,22613,0
58502323,26310,0
58506157,31847,0
58509262,32391,0
58512339,29159,0
58515391,26934,0
58518549,26710,0
58521647,27014,0
58524735,25510,0
58527821,22677,0
58530906,21077,0
58533979,22261,0
58537072,24517,0
58540180,25542,0
58543285,23621,0
58546358,21141,0
58549401,21557,0
58552491,24101,0
58555609,25862,0
58558708,24870,0
58561826,21989,0
58564924,20965,0
58568012,23269,0
58571107,25366,0
58574212,25366,0
58577308,22901,0
58580363,21461,0
58583484,22597,0
58587303,25702,0
58590364,26854,0
58593470,24918,0
58596619,22917,0
58599741,23141,0
58602876,24325,0
58605952,24533,0
58609040,22725,0
58612741,20164,0
58615849,20196,0
58618950,22101,0
58622045,23461,0
58625798,22101,0
58628898,19876,0
58632003,20052,0
58635093,22277,0
58638167,24373,0
58641292,23541,0
58644342,21205,0
58647459,20276,0
58650614,21573,0
58653696,24678,0
58656817,24998,0
58659922,23173,0
58663018,21861,0
58666108,23141,0
58669227,25990,0
58672349,27302,0
58675389,25782,0
58679261,23493,0
58682352,24485,0
58685397,27750,0
58688543,29623,0
58691638,28983,0
58694728,27078,0
58697830,26246,0
58700912,27926,0
58704015,29783,0
58707126,29063,0
58710242,27350,0
58713359,25846,0
58716425,26678,0
58719585,28550,0
58723347,28999,0
58726448,26758,0
58729607,24485,0
58732690,25318,0
58735791,27478,0
58738895,28118,0
58742007,26278,0
58745113,23829,0
58748246,23733,0
58751362,25782,0
58754402,27606,0
58757557,27222,0
58761331,24886,0
58764372,23861,0
58767507,25910,0
58770620,28262,0
58773686,28166,0
58776746,26502,0
58780494,24966,0
58783680,26470,0
58786762,28759,0
58789897,29127,0
58792980,27670,0
58796066,25878,0
58799149,26630,0
58802253,28887,0
58805334,30615,0
58808381,29335,0
58811495,27174,0
58814624,26518,0
58817706,28502,0
58820772,30567,0
58824377,30311,0
58827576,28534,0
58830680,27126,0
58833774,28711,0
58836871,31127,0
58839971,31847,0
58843066,29959,0
58846157,28246,0
58849287,28919,0
58852343,31447,0
58855433,32535,0
58858589,31335,0
58861681,29079,0
58864787,28951,0
58867889,31047,0
58870961,33112,0
58874063,32792,0
58877178,30679,0
58880305,29543,0
58883380,30647,0
58886485,33240,0
58889643,33784,0
58892736,31895,0
58896461,29767,0
58899593,30647,0
58902679,32776,0
58905777,33528,0
58908883,31735,0
58911986,30087,0
58915752,30551,0
58918844,32856,0
58921940,34344,0
58925042,33080,0
58928139,30631,0
58931257,30103,0
58934332,31687,0
58937381,33944,0
58940510,33592,0
58943619,30887,0
58946725,29191,0
58949803,30535,0
58953556,33352,0
58956652,33576,0
58959735,31575,0
58962815,29879,0
58965919,30807,0
58969017,33112,0
58972116,33944,0
58975222,32327,0
58978337,30471,0
58981398,30391,0
58984559,32423,0
58987690,34488,0
58990775,33864,0
58993907,31175,0
58997695,29911,0
59000784,31575,0
59003873,33784,0
59006974,33752,0
59010076,31863,0
59013188,30519,0
59016310,32071,0
59019354,34136,0
59022448,35672,0
59025594,34648,0
59028685,33064,0
59031809,33368,0
59035382,35592,0
59038572,36616,0
59041660,35192,0
59044754,32647,0
59048559,32231,0
59051644,34344,0
59054751,36408,0
59057836,36296,0
59060930,34264,0
59064038,33624,0
59067141,34904,0
59070254,36248,0
59073349,35464,0
59076418,32567,0
59079561,30663,0
59082664,31543,0
59086445,34408,0
59089491,35000,0
59092601,33080,0
59095673,30775,0
59098751,30903,0
59101889,33272,0
59104978,34728,0
59108078,33896,0
59111167,31511,0
59114297,30775,0
59117355,32888,0
59120415,35240,0
59123545,35416,0
59126658,33304,0
59129743,31223,0
59132842,32199,0
59135934,33768,0
59139034,34472,0
59142116,33480,0
59145250,32888,0
59148352,35720,0
59151451,41994,0
59154606,49516,0
59157681,55629,0
59160762,59150,0
59163849,62911,0
59166938,64191,0
59170721,63167,0
59173825,56669,0
59176916,44986,0
59180008,35144,0
59183776,31495,0
59186871,34616,0
59189959,38217,0
59193052,38889,0
59196137,38121,0
59204418,38937,0
59207458,37849,0
59210620,35064,0
59213757,33544,0
59216924,34776,0
59220040,36520,0
59223153,37081,0
59226256,34632,0
59229374,33304,0
59232446,33720,0
59235603,35848,0
59238723,37305,0
59241842,35592,0
59244955,33128,0
59248051,32615,0
59251774,35144,0
59254904,36632,0
59257999,35544,0
59261083,33704,0
59264170,32679,0
59268006,35176,0
59271149,36824,0
59274286,36184,0
59277343,34184,0
59280455,33192,0
59283606,34888,0
59286701,37465,0
59289816,38553,0
59292918,36568,0
59296043,34456,0
59299832,35064,0
59302941,37705,0
59306038,38969,0
59309123,37721,0
59312947,35592,0
59316010,36136,0
59319125,38409,0
59322276,39993,0
59325367,39177,0
59328424,37257,0
59331586,37001,0
59334714,39353,0
59337810,41402,0
59340932,41450,0
59343996,38985,0
59347090,37849,0
59350214,38953,0
59353322,41482,0
59357121,42250,0
59360223,40041,0
59363325,38057,0
59366374,38809,0
59369455,41194,0
59372605,42490,0
59375687,41386,0
59378785,38953,0
59381883,38249,0
59384985,40057,0
59388090,41914,0
59391178,41578,0
59394315,39609,0
59397357,37865,0
59401169,39321,0
59404298,41002,0
59407337,40777,0
59410424,38489,0
59413598,36344,0
59416697,37369,0
59419784,39289,0
59422892,40489,0
59426002,38553,0
59429087,35992,0
59432207,35384,0
59435329,37529,0
59438376,39913,0
59441478,40457,0
59444651,38889,0
59447746,37849,0
59450856,39465,0
59453946,42250,0
59457040,43754,0
59460136,41994,0
59463893,40313,0
59467016,41770,0
59470103,44778,0
59473233,46523,0
59476342,44890,0
59479395,41866,0
59482514,41770,0
59485634,43530,0
59488703,45643,0
59492430,44842,0
59495591,41658,0
59498670,40745,0
59501791,42602,0
59504897,45050,0
59508022,44682,0
59511137,42634,0
59514263,41082,0
59517356,41946,0
59520448,44794,0
59523592,46139,0
59526705,44410,0
59529834,42314,0
59532964,42282,0
59536791,45307,0
59539943,46603,0
59543078,44970,0
59546166,42074,0
59549305,42106,0
59552370,44234,0
59555444,46459,0
59558597,46587,0
59561681,44538,0
59564789,43658,0
59567899,46875,0
59571040,50412,0
59574859,51564,0
59577965,49340,0
59581083,47659,0
59584181,48651,0
59588019,51724,0
59591119,52236,0
59594231,50348,0
59597345,48075,0
59600433,48731,0
59603591,51724,0
59606707,53068,0
59609831,51388,0
59612957,48827,0
59616069,48379,0
59619200,50396,0
59622320,52380,0
59626105,50844,0
59629240,48011,0
59632355,47211,0
59635407,49164,0
59638557,51212,0
59641685,50876,0
59644799,48043,0
59647918,46203,0
59651038,47531,0
59654141,49484,0
59657279,50156,0
59660363,47899,0
59663496,45419,0
59666681,45259,0
59670444,47931,0
59673580,49051,0
59677296,46379,0
59680398,43802,0
59683500,44106,0
59686683,45947,0
59689812,47035,0
59692927,45803,0
59696072,42570,0
59699199,42010,0
59702315,44170,0
59705390,46251,0
59709240,45691,0
59712345,43146,0
59715410,42538,0
59718502,43946,0
59722340,46315,0
59725398,45611,0
59728557,42458,0
59731683,40857,0
59734805,42138,0
59737931,44474,0
59741068,45387,0
59744179,43402,0
59747293,41290,0
59750369,41578,0
59753471,42810,0
59756635,43194,0
59760405,40009,0
59763501,37017,0
59766660,37481,0
59769750,39481,0
59772877,40905,0
59775984,39481,0
59779070,36456,0
59782185,35624,0
59785319,37049,0
59788381,38841,0
59791473,38793,0
59794643,36136,0
59797755,34392,0
59800879,35960,0
59804005,38281,0
59807150,38793,0
59810269,36600,0
59813377,33672,0
59816496,33528,0
59819645,35112,0
59822751,36408,0
59825857,35720,0
59828978,34120,0
59832086,35768,0
59835208,41162,0
59838334,48299,0
59842141,55149,0
59845254,57870,0
59848362,60894,0
59851441,63439,0
59855251,60494,0
59858334,51372,0
59861418,39577,0
59864590,31287,0
59867727,29623,0
59870848,32631,0
59873951,36072,0
59877076,36392,0
59880196,34936,0
59883324,34936,0
59886395,35720,0
59890173,35864,0
59893977,32615,0
59897109,30215,0
59900246,30919,0
59903351,33144,0
59906432,34584,0
59909601,32904,0
59912703,30039,0
59915829,29671,0
59918948,31527,0
59922064,33880,0
59925196,33400,0
59928282,30871,0
59931346,29255,0
59934453,30263,0
59936959,32231,0
59940033,33064,0
59943152,31495,0
59946260,28951,0
59949351,28759,0
59952454,30791,0
59955596,32663,0
59958723,32151,0
59961836,29735,0
59964971,28422,0
59968071,29799,0
59971204,32327,0
59974311,32551,0
59978124,29255,0
59981250,27462,0
59984345,28791,0
59987446,31175,0
59991327,32391,0
59994377,30343,0
59997492,28406,0
60000677,29351,0
60003789,31687,0
60006921,32856,0
60010070,31159,0
60013204,28727,0
60016348,28695,0
60019409,31111,0
60022563,32984,0
60025685,32039,0
60029434,28887,0
60032566,28775,0
60035704,30935,0
60038823,33064,0
60041950,32423,0
60045056,30023,0
60048149,28967,0
60051264,30295,0
60054369,33096,0
60057443,33592,0
60060599,31591,0
60063722,29367,0
60066847,29991,0
60069964,32375,0
60073097,33800,0
60076219,32343,0
60079356,29415,0
60082393,28935,0
60085519,30503,0
60088630,32327,0
60091749,31495,0
60094879,28662,0
60098004,27062,0
60101739,28582,0
60104907,30791,0
60108048,30455,0
60111855,27094,0
60114963,26118,0
60118020,27062,0
60121113,29383,0
60124894,29671,0
60127996,27222,0
60131061,25510,0
60134179,26262,0
60137308,28566,0
60140379,29479,0
60143485,27926,0
60146645,25766,0
60149773,25686,0
60152904,27750,0
60156021,29223,0
60159137,28406,0
60162956,25286,0
60166054,25526,0
60169152,27142,0
60172262,29095,0
60175372,28630,0
60178433,26582,0
60181603,25526,0
60184721,26630,0
60187856,29031,0
60190974,29479,0
60194084,27590,0
60197209,25286,0
60200339,26054,0
60203419,28310,0
60205924,29783,0
60209002,28839,0
60212136,26342,0
60215283,25334,0
60218389,26854,0
60221496,29031,0
60224644,29223,0
60227776,27062,0
60230891,25190,0
60233997,26102,0
60237086,28518,0
60240189,29863,0
60243324,28326,0
60247127,25350,0
60250270,26230,0
60253371,28550,0
60256436,29927,0
60260310,27974,0
60263390,25782,0
60266483,26006,0
60269647,28166,0
60272733,29975,0
60275879,29143,0
60278979,26454,0
60282112,25766,0
60285247,27286,0
60288342,29255,0
60291431,29511,0
60294583,27254,0
60298344,25558,0
60301429,27142,0
60304571,28999,0
60307680,29399,0
60310777,27414,0
60314420,25558,0
60317582,26582,0
60320705,28679,0
60323793,29511,0
60326916,27974,0
60330049,25990,0
60333156,26918,0
60336273,29991,0
60339353,31879,0
60343201,30567,0
60346337,27670,0
60349430,27734,0
60352582,29959,0
60355657,31767,0
60358776,30935,0
60361880,28566,0
60364975,27750,0
60368059,30119,0
60371134,32840,0
60374267,33160,0
60377350,30327,0
60381192,27110,0
60384302,27430,0
60387375,29319,0
60390420,30167,0
60394253,27622,0
60397337,25654,0
60400452,26358,0
60403623,28550,0
60406746,29719,0
60409832,28166,0
60412928,25590,0
60416015,25062,0
60419101,27286,0
60422197,29255,0
60425310,29287,0
60428356,26262,0
60431457,24982,0
60434620,26278,0
60437707,29191,0
60440813,29415,0
60443899,27094,0
60447004,24469,0
60456734,30455,0
60459841,31895,0
60462945,33160,0
60466088,37833,0
60469237,45259,0
60472370,52796,0
60475459,58046,0
60478628,57902,0
60481734,53533,0
60484799,47195,0
60487933,39257,0
60491030,32311,0
60494105,25718,0
60497222,22645,0
60500333,25286,0
60503380,30167,0
60506484,33224,0
60510321,30599,0
60513360,26886,0
60516447,25910,0
60519607,27286,0
60523352,28839,0
60526474,26934,0
60529621,24517,0
60533341,24758,0
60536420,27046,0
60539570,28727,0
60542689,27510,0
60545793,24950,0
60548928,24325,0
60552023,26214,0
60555111,28791,0
60558241,28630,0
60561348,26134,0
60564395,24758,0
60568262,26374,0
60571361,28262,0
60574426,28839,0
60577568,26598,0
60580669,24790,0
60583749,25254,0
60586851,28038,0
60589927,29223,0
60593008,27926,0
60596100,25814,0
60599218,25670,0
60602355,27830,0
60605404,29559,0
60608507,29255,0
60612331,26470,0
60615387,25894,0
60618498,27446,0
60621635,29527,0
60624743,29751,0
60627850,27654,0
60630945,26006,0
60634034,27014,0
60637129,29559,0
60640236,30999,0
60643338,29367,0
60646373,27302,0
60649479,27398,0
60652641,29479,0
60656398,31479,0
60659434,30471,0
60662567,28118,0
60665636,27670,0
60668725,29831,0
60671821,32103,0
60674916,32263,0
60677998,29751,0
60681099,28855,0
60684209,29671,0
60687321,32055,0
60690386,32920,0
60693457,31335,0
60696614,29063,0
60700387,29287,0
60703455,31447,0
60706632,32631,0
60709713,30839,0
60712778,28262,0
60715879,27622,0
60718989,29095,0
60722076,31527,0
60725172,30791,0
60728264,27462,0
60731369,25878,0
60734401,27142,0
60737526,29223,0
60740660,29607,0
60744344,26678,0
60747468,24790,0
60750612,26262,0
60753715,28679,0
60756813,29335,0
60759922,27846,0
60763030,25414,0
60766129,25430,0
60769257,27638,0
60772357,29287,0
60775403,28759,0
60778523,26790,0
60781650,25974,0
60785408,28006,0
60788509,29927,0
60792327,29447,0
60795375,27030,0
60798480,26166,0
60801652,27814,0
60804772,29543,0
60807872,29767,0
60810942,27718,0
60814039,26118,0
60817120,26918,0
60820241,29303,0
60823341,30247,0
60826397,29287,0
60829527,26966,0
60832649,26790,0
60836381,29367,0
60839500,31015,0
60842634,29895,0
60845720,27286,0
60848797,26822,0
60851921,28646,0
60855019,30743,0
60858114,30903,0
60861206,28711,0
60864324,26902,0
60867384,27878,0
60870488,30263,0
60873641,31287,0
60876722,29575,0
60879838,27350,0
60882919,27606,0
60886694,30455,0
60889775,31255,0
60892892,30183,0
60895987,27414,0
60899069,27398,0
60902143,28903,0
60905263,31159,0
60908376,31255,0
60911425,29239,0
60914600,27686,0
60917666,28711,0
60920741,30775,0
60924474,31479,0
60927585,29495,0
60930652,27558,0
60933743,28454,0
60936833,30999,0
60939923,31975,0
60943019,30407,0
60946114,27910,0
60949224,27542,0
60952338,29399,0
60956014,31511,0
60959124,31127,0
60962242,29431,0
60965344,29415,0
60969133,32023,0
60972207,33848,0
60975304,33416,0
60978380,31063,0
60981419,29671,0
60984513,30903,0
60987652,33448,0
60990767,34312,0
60993861,32359,0
60996946,30807,0
61000035,31575,0
61003148,34200,0
61006277,35032,0
61009371,33352,0
61012423,29799,0
61015569,28534,0
61019355,30359,0
61022420,31751,0
61025563,31143,0
61028659,28294,0
61031728,27702,0
61034845,28903,0
61037934,30727,0
61041000,30967,0
61044085,29303,0
61047175,26902,0
61050272,27590,0
61053342,29943,0
61056449,31879,0
61060305,30055,0
61063345,28150,0
61066436,28150,0
61069587,30647,0
61072677,32231,0
61075781,31079,0
61078884,28086,0
61081988,27078,0
61085076,29127,0
61088186,33320,0
61091326,36776,0
61094395,39065,0
61097568,42890,0
61100674,49676,0
61103766,56893,0
61106856,63311,0
61109950,63519,0
61113035,57550,0
61116118,48811,0
61119205,40377,0
61122284,34424,0
61125365,30215,0
61128410,28118,0
61131567,29399,0
61134652,33144,0
61137754,36392,0
61140854,36440,0
61143948,32920,0
61147045,28919,0
61150154,28006,0
61153982,30199,0
61157118,31031,0
61160219,29735,0
61163338,27382,0
61167072,27974,0
61170159,29863,0
61173275,31495,0
61176356,30119,0
61179408,27558,0
61182529,26950,0
61185624,29607,0
61188710,31175,0
61191816,31143,0
61194927,28951,0
61198001,27734,0
61201105,28518,0
61204186,30855,0
61207292,31895,0
61210379,30295,0
61213439,27926,0
61216579,28278,0
61219678,30471,0
61222780,32039,0
61225867,31447,0
61228946,28839,0
61232048,27926,0
61235141,29687,0
61238268,31879,0
61241359,32519,0
61245109,30023,0
61248181,28550,0
61251288,30119,0
61254362,32183,0
61257390,32936,0
61260476,31543,0
61263657,29527,0
61266787,30135,0
61269928,32167,0
61273050,33848,0
61276170,32567,0
61279301,30295,0
61282356,30007,0
61285477,32103,0
61288610,34296,0
61291712,34280,0
61294808,32359,0
61297896,30791,0
61300970,31831,0
61304058,34376,0
61307145,35416,0
61310261,33704,0
61313354,31399,0
61316444,31687,0
61319582,34328,0
61322679,36040,0
61325800,35464,0
61328894,32808,0
61331976,31991,0
61335083,34088,0
61338178,35864,0
61341303,36024,0
61344362,33320,0
61347443,31543,0
61350580,31895,0
61353676,33784,0
61356808,34584,0
61359914,32711,0
61363016,30279,0
61366152,30231,0
61369259,32215,0
61372370,33992,0
61375867,33352,0
61378372,30999,0
61381425,29863,0
61384584,30983,0
61387677,33176,0
61390781,33576,0
61393874,31511,0
61396963,29479,0
61400077,30039,0
61403173,32311,0
61406303,34152,0
61409390,33016,0
61412463,30631,0
61415623,29767,0
61418747,31479,0
61421867,33496,0
61424962,33704,0
61428737,30855,0
61431863,29911,0
61434953,31319,0
61438022,33592,0
61441069,34200,0
61444171,32407,0
61447275,30231,0
61450388,31063,0
61453430,33432,0
61456602,35000,0
61460348,33256,0
61463424,30711,0
61466569,31127,0
61469663,33448,0
61472739,35064,0
61475850,34440,0
61478944,32071,0
61482059,31175,0
61485144,32968,0
61488267,35048,0
61491364,35208,0
61494411,33448,0
61497489,31383,0
61500635,32567,0
61503725,34664,0
61506809,35736,0
61509879,34600,0
61512990,32023,0
61516073,31687,0
61519170,33720,0
61522271,35640,0
61525350,35256,0
61528376,32535,0
61531466,31255,0
61534641,32519,0
61537731,34808,0
61540812,35496,0
61543905,33928,0
61547020,31799,0
61550107,32263,0
61553167,34376,0
61556291,36008,0
61559362,34600,0
61563121,31527,0
61566218,31159,0
61569347,33432,0
61572394,35192,0
61575491,34776,0
61578674,32471,0
61581775,31415,0
61585320,33608,0
61588593,35912,0
61591686,35928,0
61595456,32727,0
61598495,31559,0
61601014,33080,0
61604112,35112,0
61607209,36328,0
61610326,34472,0
61613377,32711,0
61616481,33080,0
61619628,35752,0
61622757,37961,0
61625899,37481,0
61628976,35304,0
61632105,34344,0
61635187,35544,0
61638295,37737,0
61641372,37737,0
61644385,36040,0
61647462,34440,0
61650610,35416,0
61654388,38105,0
61657462,38809,0
61660595,36120,0
61663666,32984,0
61666793,33000,0
61669880,34520,0
61672992,35672,0
61676075,34552,0
61679148,32215,0
61682272,31495,0
61685386,33384,0
61688455,34968,0
61691610,34728,0
61694695,32167,0
61704392,34088,0
61707432,34712,0
61710616,32920,0
61713730,30855,0
61716918,31447,0
61720007,33880,0
61723136,35000,0
61726276,33640,0
61729380,30679,0
61733158,29639,0
61736293,31767,0
61739385,33928,0
61742434,35080,0
61745570,36168,0
61748656,39945,0
61751751,47579,0
61754850,55309,0
61757952,60686,0
61761041,63071,0
61764115,62639,0
61767192,60046,0
61770346,53421,0
61773429,43866,0
61776585,33576,0
61779671,27382,0
61783392,28422,0
61786532,34168,0
61789673,38121,0
61792777,37449,0
61795866,34296,0
61798957,31591,0
61802449,31959,0
61805707,33192,0
61808811,32872,0
61811939,30391,0
61815028,29383,0
61818124,30759,0
61821260,33032,0
61824350,33608,0
61828198,31495,0
61831317,29575,0
61834354,30823,0
61837424,33064,0
61840611,33864,0
61843715,32087,0
61846794,29991,0
61849866,30279,0
61852972,32503,0
61856064,34312,0
61859182,33528,0
61862271,31175,0
61865311,30327,0
61868362,31767,0
61871463,34136,0
61874622,34600,0
61877728,32391,0
61880818,30615,0
61883899,31463,0
61887009,33960,0
61890109,35096,0
61893209,33944,0
61896339,31415,0
61899422,31415,0
61902534,33320,0
61905641,35128,0
61908731,34904,0
61911828,32535,0
61914925,31527,0
61918035,33000,0
61921122,35416,0
61924205,36232,0
61927300,34488,0
61930394,32599,0
61933457,32824,0
61936598,35256,0
61939723,36568,0
61942799,36184,0
61945898,33688,0
61948974,32984,0
61952049,34648,0
61955139,37001,0
61958262,37289,0
61961388,35192,0
61964428,33416,0
61967590,34408,0
61970683,36824,0
61973767,38025,0
61976856,36568,0
61979951,34696,0
61983020,34872,0
61986102,37049,0
61989195,38729,0
61992313,38409,0
61995373,35736,0
61997884,34600,0
62001629,35624,0
62004684,37129,0
62007763,37305,0
62010877,34792,0
62014487,32199,0
62017670,33320,0
62020771,35336,0
62023864,36040,0
62026973,34120,0
62030043,31751,0
62033170,31383,0
62036299,33384,0
62039368,35096,0
62042472,34264,0
62045625,31879,0
62048716,31079,0
62051806,32840,0
62054930,34776,0
62058706,34680,0
62061785,32599,0
62064886,31143,0
62067972,32487,0
62071070,34680,0
62074175,35640,0
62077312,33640,0
62080375,31447,0
62083483,31799,0
62086645,34136,0
62089750,35640,0
62092851,34552,0
62095972,31559,0
62099068,31095,0
62102839,33480,0
62105942,35208,0
62109027,34648,0
62112116,31959,0
62115209,30999,0
62118315,32776,0
62121367,35144,0
62124476,35400,0
62127628,33416,0
62130692,31447,0
62133699,32135,0
62136804,34344,0
62139898,35592,0
62142993,34712,0
62146079,32263,0
62149156,31879,0
62152259,33848,0
62155397,35592,0
62158447,35480,0
62161601,33240,0
62164711,32023,0
62167806,33128,0
62170918,35432,0
62174008,36280,0
62177067,34616,0
62180144,32407,0
62183255,32535,0
62186357,34856,0
62189400,36264,0
62192489,35448,0
62195646,33000,0
62198736,32087,0
62201863,33720,0
62204966,35896,0
62208077,36200,0
62211151,33784,0
62214289,32103,0
62217381,33064,0
62220429,35336,0
62224222,36312,0
62227380,34568,0
62230425,32455,0
62233564,32792,0
62237342,35464,0
62240385,36392,0
62243499,34680,0
62246632,32455,0
62249745,32471,0
62252851,34376,0
62255934,36232,0
62259013,35512,0
62262075,33192,0
62265106,31767,0
62268937,34008,0
62272027,35928,0
62275132,36056,0
62278269,33800,0
62281391,32343,0
62284453,33448,0
62287585,35432,0
62290676,36040,0
62293768,34216,0
62296895,32439,0
62299985,32391,0
62303074,34360,0
62306220,36168,0
62309320,35464,0
62312380,33112,0
62315497,32455,0
62318647,34520,0
62321752,37033,0
62325492,37609,0
62328654,35272,0
62331725,34056,0
62334858,35368,0
62337944,37017,0
62341043,37689,0
62344124,35624,0
62347214,33720,0
62350323,34952,0
62353358,37721,0
62356466,39529,0
62359628,38361,0
62362706,35400,0
62365787,34136,0
62368897,34808,0
62371973,36312,0
62375071,35976,0
62378163,33752,0
62381269,32135,0
62384397,33672,0
62387406,35672,0
62390588,36472,0
62393677,34472,0
62396746,32119,0
62399823,31751,0
62402827,33608,0
62405878,35592,0
62408965,35416,0
62412072,33016,0
62415148,31879,0
62418238,33064,0
62421382,35112,0
62424442,35496,0
62427579,33224,0
62430671,30919,0
62434390,30935,0
62437458,32663,0
62440511,33928,0
62443661,34056,0
62446747,35208,0
62449853,40057,0
62452957,47883,0
62456062,55757,0
62459813,60846,0
62462916,63327,0
62465986,63823,0
62469066,62511,0
62472140,56109,0
62475258,44618,0
62478376,32135,0
62481432,25766,0
62484603,26998,0
62487703,32119,0
62490805,36024,0
62493912,35592,0
62497007,33112,0
62500133,31959,0
62503265,32055,0
62506391,32103,0
62510136,29879,0
62513226,28182,0
62516328,28679,0
62519365,30919,0
62522438,32599,0
62525585,31991,0
62528687,29799,0
62531792,29255,0
62534880,30247,0
62538639,32615,0
62542370,32647,0
62545457,31127,0
62548598,30871,0
62551713,32039,0
62554828,33688,0
62557932,33896,0
62561033,31991,0
62564134,30999,0
62567258,31847,0
62570355,33448,0
62573402,33896,0
62576502,32647,0
62579669,31143,0
62582732,31495,0
62585826,32872,0
62588932,34184,0
62592032,33816,0
62595109,31943,0
62598878,31575,0
62601977,33112,0
62605053,34936,0
62608158,34328,0
62611264,32519,0
62614387,31719,0
62617438,32824,0
62620592,34840,0
62623683,35336,0
62626786,33912,0
62629892,31991,0
62632988,32535,0
62636089,33768,0
62639178,34856,0
62642290,34296,0
62646002,32920,0
62649111,32840,0
62652193,34424,0
62655338,35816,0
62658369,35800,0
62661460,34104,0
62664523,33544,0
62667665,34648,0
62671455,36712,0
62675239,36520,0
62678338,34952,0
62681389,34392,0
62684573,35288,0
62687674,36680,0
62690761,37001,0
62693859,35176,0
62696970,33896,0
62700049,34024,0
62703116,35352,0
62706184,36088,0
62709283,34840,0
62712389,32647,0
62715455,32840,0
62718600,33768,0
62721688,34904,0
62724793,34344,0
62727878,32183,0
62730963,31063,0
62734733,32263,0
62737853,33864,0
62740956,33624,0
62744048,32311,0
62747123,30695,0
62750236,31559,0
62753351,33112,0
62756411,34056,0
62759572,32776,0
62762669,30807,0
62765775,30887,0
62768908,32439,0
62772005,33608,0
62775125,33256,0
62778243,31543,0
62781307,30663,0
62784364,31735,0
62787470,33416,0
62790592,33560,0
62793685,31799,0
62796799,30647,0
62799921,31543,0
62803010,33608,0
62806121,34424,0
62809273,33784,0
62812377,32039,0
62815440,32039,0
62818593,33800,0
62821712,34712,0
62824837,34280,0
62827957,32567,0
62831071,31623,0
62834186,32695,0
62837309,34520,0
62840379,34712,0
62843473,33064,0
62846608,31751,0
62849726,31959,0
62852856,33848,0
62856478,34776,0
62859634,33464,0
62862708,31975,0
62865767,31943,0
62869526,34040,0
62872684,34648,0
62875814,33416,0
62878934,31911,0
62882017,31511,0
62885131,33336,0
62888264,34456,0
62891377,34136,0
62894456,32679,0
62897634,31671,0
62900715,32679,0
62903802,34440,0
62906896,34776,0
62909971,33832,0
62913080,31895,0
62916167,32103,0
62919984,33992,0
62923083,34728,0
62926202,33272,0
62929317,31959,0
62932409,32007,0
62935577,33512,0
62938702,34872,0
62941794,34280,0
62951381,33016,0
62954486,34696,0
62957663,34872,0
62960794,32936,0
62963994,31639,0
62967123,32263,0
62970238,34104,0
62973376,34472,0
62976460,33080,0
62979641,31159,0
62982778,31143,0
62985859,32808,0
62988967,33912,0
62992072,33304,0
62995872,31159,0
62999007,30951,0
63002122,32471,0
63005247,33688,0
63008356,33368,0
63011435,31751,0
63014600,30727,0
63017732,32055,0
63020889,33256,0
63023983,33416,0
63027095,31591,0
63030221,30167,0
63033361,30855,0
63036437,32551,0
63039591,33384,0
63042710,32279,0
63045861,30423,0
63048990,30423,0
63052109,31943,0
63055220,33384,0
63058306,33208,0
63061378,31831,0
63064478,31463,0
63067638,33640,0
63070776,35288,0
63074267,35432,0
63077577,33496,0
63080682,32135,0
63083800,32247,0
63086931,33752,0
63090049,34936,0
63093153,34024,0
63096273,32679,0
63099395,33304,0
63102445,34424,0
63105599,34920,0
63108711,33368,0
63111818,30695,0
63114943,29767,0
63118040,30903,0
63121150,32551,0
63124267,32615,0
63127389,30711,0
63131190,29319,0
63134291,30583,0
63137396,31623,0
63140429,31687,0
63143592,30215,0
63146701,28855,0
63149812,29335,0
63152952,31255,0
63156028,32711,0
63159156,31367,0
63162261,29255,0
63165366,28518,0
63168454,29207,0
63171627,30551,0
63174742,30471,0
63177880,29943,0
63180990,31591,0
63184113,37241,0
63187896,46187,0
63191001,52636,0
63194115,56381,0
63197233,59998,0
63200343,63551,0
63203379,62463,0
63206534,55325,0
63209620,42794,0
63212729,31271,0
63215838,25494,0
63218958,26822,0
63222100,30983,0
63225232,34152,0
63228350,34152,0
63231418,33496,0
63234516,33208,0
63237675,32872,0
63240773,31719,0
63243921,29863,0
63247064,28711,0
63250190,29623,0
63253295,31575,0
63256383,32343,0
63259443,30983,0
63262499,29399,0
63266295,29511,0
63269364,31127,0
63272438,32327,0
63275584,31511,0
63278717,29591,0
63281821,29239,0
63285370,30935,0
63288701,32391,0
63291801,32039,0
63294919,30183,0
63298039,29591,0
63301154,30359,0
63304261,31511,0
63307375,32215,0
63310447,30599,0
63313584,29287,0
63316737,30087,0
63319815,31831,0
63323593,32663,0
63326705,31351,0
63329816,29671,0
63332955,30359,0
63336068,32279,0
63339194,33320,0
63342250,32824,0
63345375,31271,0
63348435,31319,0
63351583,32792,0
63354677,34056,0
63357818,34344,0
63360964,32695,0
63364062,31543,0
63367191,32535,0
63370296,34520,0
63373376,35272,0
63376463,33960,0
63379634,32375,0
63382754,32583,0
63385884,34216,0
63388979,35368,0
63392076,34616,0
63395191,32439,0
63398996,32167,0
63402117,33992,0
63405214,35320,0
63408320,35288,0
63411364,34056,0
63414464,33240,0
63417633,34360,0
63420758,36264,0
63423897,36536,0
63426992,35288,0
63430091,33848,0
63433203,34344,0
63436341,35560,0
63439418,36408,0
63442510,35224,0
63445691,33096,0
63448816,32776,0
63451950,33976,0
63455053,34872,0
63458144,34600,0
63461265,32663,0
63464363,31559,0
63467410,32183,0
63470523,33672,0
63473676,33736,0
63476713,32327,0
63479864,30615,0
63482961,31207,0
63486098,32727,0
63489196,34040,0
63492332,33064,0
63495393,31239,0
63499140,31175,0
63502277,32567,0
63505398,33912,0
63508482,33144,0
63511655,31591,0
63514735,31063,0
63517881,32711,0
63520984,34200,0
63524095,33848,0
63527204,32167,0
63530309,30967,0
63534098,32535,0
63537193,34616,0
63540295,35080,0
63543398,33544,0
63546439,31767,0
63549597,32375,0
63552711,34008,0
63555860,34968,0
63558980,33992,0
63562083,32439,0
63565192,32039,0
63568325,33512,0
63571405,34904,0
63574520,34504,0
63577676,32407,0
63580800,31431,0
63583945,32503,0
63587013,34056,0
63590098,34664,0
63593199,33320,0
63597022,31607,0
63600122,32391,0
63603228,33816,0
63606311,34392,0
63609373,33336,0
63613231,31799,0
63616336,32679,0
63619426,34520,0
63622505,35240,0
63625667,34264,0
63628782,31943,0
63631897,31655,0
63635027,32936,0
63638113,34392,0
63641235,34312,0
63644348,32792,0
63647427,32087,0
63650588,33176,0
63653681,35048,0
63656802,35480,0
63659937,33960,0
63663044,31975,0
63666173,32071,0
63669981,33992,0
63673083,34792,0
63676207,33880,0
63679313,31927,0
63682389,31815,0
63685479,33560,0
63688628,34936,0
63691755,34536,0
63694891,32487,0
63698019,31639,0
63701131,32792,0
63704262,34136,0
63707384,34136,0
63711138,31959,0
63714227,31383,0
63717384,32247,0
63720456,34120,0
63723605,34568,0
63726699,32984,0
63729809,31255,0
63733620,32023,0
63736736,33976,0
63739846,34488,0
63742960,33416,0
63745991,31335,0
63749120,31047,0
63752216,32263,0
63755342,33848,0
63758413,33704,0
63761513,32231,0
63764679,31927,0
63767807,32808,0
63770929,34248,0
63774052,34072,0
63777154,32199,0
63780256,30711,0
63783361,31479,0
63786432,33352,0
63789589,34280,0
63792675,32808,0
63795783,30567,0
63798903,30663,0
63802704,32295,0
63805805,33240,0
63808897,32535,0
63811985,30551,0
63815077,30199,0
63818177,31831,0
63821282,33704,0
63824375,34232,0
63827487,32904,0
63830627,32343,0
63833759,33816,0
63836894,35864,0
63840029,36312,0
63843134,34936,0
63846247,32952,0
63849376,32952,0
63852469,34792,0
63855626,36520,0
63858751,36376,0
63861891,34584,0
63865696,33992,0
63868810,35400,0
63871964,36712,0
63875079,35816,0
63878201,33176,0
63882027,31559,0
63885132,33080,0
63888271,35000,0
63891366,34456,0
63894467,32551,0
63897605,30967,0
63900727,31399,0
63903873,33208,0
63906995,34296,0
63910105,33000,0
63913211,30791,0
63916333,31207,0
63919394,32904,0
63923182,34552,0
63926321,33320,0
63929392,31095,0
63932505,30599,0
63935641,31991,0
63939406,34392,0
63942511,34840,0
63945660,35368,0
63948812,38825,0
63951951,45851,0
63955099,53453,0
63958233,59982,0
63961360,63631,0
63964426,64207,0
63967593,63103,0
63970675,57758,0
63973807,47563,0
63976958,35944,0
63980076,27702,0
63983173,27126,0
63986278,31287,0
63989405,36104,0
63992459,37513,0
63995616,35544,0
63998711,33592,0
64002444,33912,0
64005580,34408,0
64008687,33464,0
64011776,31175,0
64014894,30375,0
64017997,31703,0
64021762,34280,0
64024885,34264,0
64027964,31671,0
64031042,30375,0
64034139,31127,0
64037216,32952,0
64040352,33992,0
64043411,32920,0
64046550,31143,0
64049663,31271,0
64052751,33240,0
64055865,34840,0
64058966,34824,0
64062050,32856,0
64065141,31639,0
64068199,33048,0
64072004,34936,0
64075081,34504,0
64078173,32391,0
64081273,30967,0
64084374,32151,0
64087468,34552,0
64090628,35240,0
64093728,33880,0
64096822,31591,0
64099965,31959,0
64103095,34376,0
64106217,35928,0
64109338,35112,0
64112419,32792,0
64115523,31975,0
64118650,33528,0
64121780,35400,0
64124877,35800,0
64127991,34184,0
64131078,32776,0
64134077,33944,0
64137219,36072,0
64140329,37017,0
64143406,35576,0
64146502,33496,0
64150313,34344,0
64154102,36889,0
64157170,37625,0
64160271,36008,0
64163366,34056,0
64166440,34296,0
64169531,36248,0
64172699,37769,0
64175822,37273,0
64178922,35080,0
64182026,34360,0
64185106,36040,0
64188203,37913,0
64191305,38281,0
64194383,36120,0
64204053,37001,0
64207164,37913,0
64210275,36072,0
64213388,33896,0
64216468,33656,0
64219539,35000,0
64222680,35832,0
64225770,34984,0
64228881,32311,0
64231996,31527,0
64235083,32840,0
64238173,34728,0
64241295,35240,0
64244373,33560,0
64247469,32808,0
64250634,33960,0
64253748,36312,0
64256867,37753,0
64259982,36520,0
64263763,34104,0
64266906,34696,0
64270009,36488,0
64273128,37385,0
64276247,36504,0
64279361,34760,0
64282475,34600,0
64285519,36264,0
64288644,38137,0
64291732,38009,0
64294818,35960,0
64297922,34760,0
64301004,36056,0
64304092,38153,0
64307200,38793,0
64310313,37353,0
64313380,35608,0
64316487,35896,0
64319658,38329,0
64322760,40409,0
64325915,40889,0
64329006,39353,0
64332128,39241,0
64335183,40793,0
64338281,42874,0
64342078,43258,0
64345180,41706,0
64348300,40761,0
64351839,42426,0
64355076,44042,0
64358136,44186,0
64361243,42490,0
64364351,40841,0
64367386,41306,0
64370494,42762,0
64373554,42954,0
64376664,41322,0
64379739,39193,0
64382811,39145,0
64385921,40377,0
64389020,41866,0
64392102,41066,0
64395188,38985,0
64398295,37721,0
64401392,39049,0
64404441,40329,0
64407617,41066,0
64410673,39865,0
64413757,38569,0
64416902,39113,0
64419987,40986,0
64423069,42666,0
64426156,41706,0
64429270,39817,0
64432403,39401,0
64435441,40889,0
64438585,42410,0
64441680,42650,0
64444803,40521,0
64447917,39289,0
64451027,40393,0
64454095,41962,0
64457181,42778,0
64460281,41370,0
64463374,39497,0
64466400,39241,0
64469452,40777,0
64472608,41690,0
64475700,40921,0
64478797,38889,0
64481886,38329,0
64484982,39753,0
64488051,41482,0
64491136,41562,0
64494201,39641,0
64497324,37817,0
64500407,38249,0
64503461,39801,0
64506613,41146,0
64509730,40089,0
64512822,37785,0
64515935,37785,0
64519052,38937,0
64522156,40793,0
64525290,40809,0
64528413,38937,0
64531439,37673,0
64534589,38537,0
64538374,40521,0
64541421,40905,0
64544541,39849,0
64547665,38873,0
64550744,39753,0
64553836,41946,0
64556938,42570,0
64560426,40681,0
64563755,38521,0
64566881,38553,0
64569973,40665,0
64573050,42666,0
64576157,42218,0
64579304,39913,0
64582391,39145,0
64585515,39849,0
64588689,40665,0
64591775,39785,0
64594899,37305,0
64597995,35864,0
64601080,36808,0
64604162,38585,0
64607275,39065,0
64610395,37561,0
64613438,35512,0
64617245,35560,0
64620337,37209,0
64623376,38041,0
64626486,36889,0
64629645,34552,0
64632700,34408,0
64635815,35912,0
64638925,37545,0
64642021,37113,0
64645110,34824,0
64648209,33160,0
64651345,33976,0
64654401,35496,0
64657495,36840,0
64660654,37625,0
64663743,39785,0
64666825,45595,0
64669929,53789,0
64673706,61887,0
64676805,64127,0
64679893,64031,0
64682973,62911,0
64686061,58190,0
64689836,47131,0
64693638,35080,0
64696735,28727,0
64699847,29575,0
64702955,34200,0
64706035,38617,0
64709111,39657,0
64712212,37609,0
64715317,36168,0
64718381,36424,0
64721479,37401,0
64724622,37417,0
64727721,35480,0
64730793,33816,0
64733899,34216,0
64736975,35608,0
64740080,36552,0
64743150,35336,0
64746237,32920,0
64750031,32599,0
64753130,34296,0
64756200,35064,0
64759302,34200,0
64762403,31991,0
64765481,31511,0
64768622,33208,0
64772315,35144,0
64775398,34680,0
64778509,32471,0
64781673,31255,0
64784784,32471,0
64787901,33864,0
64791004,34088,0
64794100,32071,0
64797200,30231,0
64800310,30727,0
64803388,32583,0
64807191,33768,0
64810271,32215,0
64813393,30183,0
64816449,30215,0
64819592,31863,0
64823357,33496,0
64826394,32439,0
64829486,30471,0
64832634,30439,0
64835734,31735,0
64838828,33304,0
64841925,33464,0
64844997,31655,0
64848100,30599,0
64851211,31703,0
64854305,33480,0
64857393,34312,0
64860487,32567,0
64863655,30839,0
64866732,31255,0
64869817,33192,0
64872921,34440,0
64876014,33352,0
64879083,31431,0
64882167,30999,0
64885971,32968,0
64889075,34600,0
64892143,34152,0
64895232,31911,0
64898347,30871,0
64901387,31911,0
64904479,33784,0
64907651,34328,0
64910757,32567,0
64913882,30855,0
64917003,30951,0
64920119,32359,0
64923221,33240,0
64926333,31831,0
64929377,29719,0
64932476,29175,0
64935630,30551,0
64938750,31895,0
64941872,31703,0
64944972,29415,0
64948039,27830,0
64951120,28823,0
64954187,30631,0
64957988,31351,0
64961067,29591,0
64964140,27894,0
64967908,28374,0
64971000,30007,0
64974069,30263,0
64977172,28855,0
64980307,26982,0
64984048,27654,0
64987188,29399,0
64990318,30439,0
64993414,29079,0
64996443,27334,0
64999597,27526,0
65002694,29223,0
65005778,30615,0
65008877,30375,0
65011968,28518,0
65015053,27526,0
65018826,29047,0
65021916,30919,0
65024982,30615,0
65028076,28630,0
65031156,26870,0
65034261,27638,0
65037387,29207,0
65040433,30423,0
65043600,29015,0
65046696,27334,0
65049840,27254,0
65052934,28582,0
65056012,29959,0
65059094,29415,0
65062188,27414,0
65065287,26598,0
65068385,28006,0
65071480,29831,0
65074635,30023,0
65077728,28134,0
65081511,26566,0
65084616,27654,0
65087703,29831,0
65090789,30695,0
65093884,29207,0
65096984,27446,0
65100757,28118,0
65103845,29959,0
65106964,31159,0
65110072,29991,0
65113139,28294,0
65116223,27990,0
65119358,29847,0
65122409,31543,0
65125505,31335,0
65128678,28855,0
65131767,27606,0
65134864,28983,0
65137969,30647,0
65141065,31239,0
65144168,29719,0
65147311,28054,0
65150411,28935,0
65153465,30775,0
65156601,31911,0
65159668,30119,0
65162755,27894,0
65165859,27414,0
65168977,29143,0
65172061,30615,0
65175164,30631,0
65178267,28662,0
65181366,27414,0
65184409,28230,0
65187503,29927,0
65190680,30775,0
65194404,28903,0
65197460,27126,0
65200618,28118,0
65203711,30007,0
65206804,31911,0
65209921,31111,0
65213017,29655,0
65216777,29335,0
65219853,31207,0
65222958,32295,0
65226037,31847,0
65229129,29751,0
65232910,28903,0
65236664,31031,0
65239781,32743,0
65242893,32647,0
65246001,30983,0
65249065,29591,0
65252163,30375,0
65255283,31351,0
65258387,30807,0
65261431,28630,0
65264536,26966,0
65267649,27814,0
65270772,29623,0
65273866,30519,0
65276966,28646,0
65280054,26582,0
65283098,26342,0
65286135,27750,0
65289230,29335,0
65292332,28887,0
65295397,26758,0
65298503,25990,0
65301651,27030,0
65304762,28951,0
65307866,29159,0
65310947,27302,0
65314040,25622,0
65317147,25782,0
65320259,26966,0
65323386,27814,0
65326471,27014,0
65329635,26422,0
65332724,28566,0
65335843,33256,0
65338963,39545,0
65342033,44714,0
65345103,48203,0
65348198,51916,0
65352002,57406,0
65355086,57005,0
65358187,49884,0
65361290,38489,0
65365081,27414,0
65368184,24197,0
65371295,25574,0
65374383,27862,0
65377498,28807,0
65380645,28743,0
65383736,28999,0
65386830,29751,0
65389952,29751,0
65393038,27686,0
65396123,25046,0
65399181,24485,0
65402277,26310,0
65406049,28550,0
65409157,28102,0
65412237,26182,0
65415338,24998,0
65418400,26598,0
65421484,28358,0
65424626,29095,0
65428404,26854,0
65431473,25398,0
65434649,26374,0
65437725,28358,0
65440826,29095,0
65443922,27846,0
65452204,27558,0
65455307,29463,0
65458420,29751,0
65461478,27942,0
65464686,26166,0
65467788,26742,0
65470890,28534,0
65473995,29511,0
65477087,28422,0
65480174,26454,0
65483281,26902,0
65486410,28566,0
65489485,30391,0
65492643,29687,0
65496416,27638,0
65499470,27510,0
65502653,29415,0
65506386,30871,0
65509490,30439,0
65512654,28438,0
65515778,27990,0
65518847,29223,0
65521952,30935,0
65525033,31175,0
65528131,29767,0
65531233,28550,0
65534362,29639,0
65537424,31863,0
65540525,32792,0
65543676,31463,0
65546737,29591,0
65549843,29383,0
65552962,30935,0
65556746,32551,0
65559841,31655,0
65562930,29527,0
65565993,29239,0
65569060,30631,0
65572144,32647,0
65575237,32391,0
65578364,30487,0
65581418,29447,0
65584514,30647,0
65587682,32103,0
65590781,32631,0
65593901,30919,0
65596982,29159,0
65600082,29111,0
65603189,30519,0
65606304,31703,0
65609381,30999,0
65612494,28743,0
65615655,27814,0
65618743,28983,0
65622398,30743,0
65625547,30631,0
65629356,27718,0
65632412,26998,0
65635515,28470,0
65638027,30007,0
65641112,30439,0
65644195,28743,0
65647309,26470,0
65650421,26582,0
65653458,28422,0
65656564,30167,0
65659697,29143,0
65662764,26982,0
65665867,26918,0
65668958,28550,0
65672065,30071,0
65675145,30327,0
65678237,28422,0
65681339,27238,0
65684400,28054,0
65687511,30119,0
65691301,30791,0
65694414,29239,0
65697448,27430,0
65700603,28150,0
65703720,29799,0
65706797,30999,0
65709911,30103,0
65712997,27974,0
65716091,27558,0
65719213,29143,0
65722324,30791,0
65725426,30887,0
65728506,28646,0
65731639,27606,0
65734731,28646,0
65737818,30599,0
65740903,31175,0
65743992,30055,0
65747094,28134,0
65750193,28743,0
65754013,30599,0
65757102,31495,0
65760190,30455,0
65763304,28438,0
65766413,28262,0
65769479,29399,0
65772005,30487,0
65775099,30903,0
65778209,28999,0
65781325,27846,0
65784409,28903,0
65787525,30663,0
65790713,31415,0
65793830,30231,0
65796983,28454,0
65800100,28646,0
65803225,30135,0
65806337,31479,0
65809380,30871,0
65812476,29079,0
65815611,28294,0
65818734,29815,0
65821829,31495,0
65824941,31575,0
65828058,29767,0
65831625,28310,0
65834996,29351,0
65838077,30839,0
65841198,31063,0
65844321,29463,0
65847408,28054,0
65850504,28614,0
65853675,30823,0
65856765,32087,0
65859901,31559,0
65862998,30071,0
65866146,29911,0
65869249,31687,0
65872365,33528,0
65875446,33192,0
65878528,31415,0
65881682,30727,0
65884784,31543,0
65887927,33496,0
65891727,34360,0
65894858,33144,0
65898663,32087,0
65901804,33272,0
65904958,34488,0
65908774,33624,0
65911907,30695,0
65915013,29111,0
65918133,29975,0
65921256,31895,0
65924363,32311,0
65927431,30823,0
65930602,28999,0
65933718,29079,0
65936841,30759,0
65939983,31783,0
65943086,30871,0
65946180,28454,0
65949291,27846,0
65952388,29271,0
65955433,31207,0
65958525,31207,0
65961664,29559,0
65964784,28422,0
65968594,29415,0
65971712,30471,0
65974833,30359,0
65977993,28534,0
65981075,27318,0
65984206,30071,0
65987317,35656,0
65990414,41242,0
65993487,45803,0
65996634,49932,0
65999762,54941,0
66002884,61823,0
66005962,64271,0
66009068,60382,0
66012181,49324,0
66015303,37129,0
66018421,29639,0
66021470,27174,0
66025296,28326,0
66028386,29591,0
66032173,31431,0
66035286,33128,0
66038404,34056,0
66042208,32167,0
66045937,28486,0
66049103,26998,0
66052186,28438,0
66055307,30391,0
66058388,30647,0
66061507,28903,0
66064664,27430,0
66067773,28246,0
66070910,30231,0
66074038,31335,0
66077163,29847,0
66080274,28086,0
66083377,28214,0
66086436,29863,0
66089531,31591,0
66092682,31143,0
66095807,28887,0
66098929,28246,0
66102736,29847,0
66105821,31223,0
66108948,31111,0
66112059,29127,0
66115178,28230,0
66118307,29175,0
66121407,30967,0
66124517,31735,0
66127681,30199,0
66130819,28230,0
66133973,28871,0
66137105,31079,0
66140197,32343,0
66143299,31303,0
66146396,29351,0
66149463,29063,0
66152604,30359,0
66155716,32231,0
66159473,31959,0
66162628,30023,0
66166432,29879,0
66169519,31431,0
66172665,33464,0
66176455,32695,0
66179540,30503,0
66182696,30231,0
66185804,32039,0
66188940,34136,0
66192068,33880,0
66195193,31943,0
66198300,30951,0
66201398,32103,0
66204496,34040,0
66207636,34776,0
66210711,33432,0
66213856,31559,0
66216967,32343,0
66220090,34088,0
66223194,35480,0
66226306,34744,0
66229392,32663,0
66232504,32119,0
66236359,34120,0
66239438,35704,0
66242528,34648,0
66245710,31991,0
66248821,30775,0
66251961,32167,0
66255101,33656,0
66258850,33768,0
66261974,31287,0
66265106,29959,0
66268236,30711,0
66271344,32231,0
66274423,32952,0
66277603,30951,0
66280713,29175,0
66283833,29351,0
66286947,31255,0
66290071,32792,0
66293876,31447,0
66296984,29463,0
66300776,29703,0
66303908,31671,0
66306994,32663,0
66310130,31479,0
66313234,29687,0
66316348,29415,0
66319418,30871,0
66322492,32567,0
66325665,32519,0
66328780,30295,0
66331922,29239,0
66335049,30311,0
66338159,32279,0
66341275,32952,0
66344409,31143,0
66347469,29671,0
66350627,30071,0
66353755,31975,0
66356826,33304,0
66359962,32343,0
66363087,30055,0
66366195,29975,0
66369998,32247,0
66373121,33416,0
66376236,32519,0
66379343,30295,0
66382419,29607,0
66385521,31303,0
66388675,33224,0
66391810,33480,0
66394940,31527,0
66398085,30135,0
66401211,30855,0
66404335,32936,0
66407427,33528,0
66410502,32167,0
66413633,29863,0
66416756,29879,0
66419874,31895,0
66422976,33704,0
66426756,32631,0
66429878,30375,0
66433013,29943,0
66436824,32039,0
66439963,33816,0
66443099,32952,0
66446208,30423,0
66449331,29863,0
66452405,31287,0
66455516,33096,0
66458677,33096,0
66461796,31015,0
66464956,29351,0
66468059,30599,0
66471834,32872,0
66474985,33416,0
66478104,31223,0
66481215,29591,0
66484333,30471,0
66487398,33208,0
66490491,34824,0
66493665,33800,0
66496792,31879,0
66499915,31671,0
66503020,33560,0
66506830,35176,0
66509959,34360,0
66513073,32023,0
66516193,31495,0
66519313,33576,0
66522415,35912,0
66525487,36824,0
66528636,34664,0
66531713,32856,0
66534817,33128,0
66537939,34680,0
66541015,34936,0
66544104,32856,0
66547163,30311,0
66550298,30375,0
66553406,32247,0
66556480,33560,0
66559644,32519,0
66563426,29399,0
66566476,29143,0
66570293,31511,0
66573415,33128,0
66576471,32327,0
66579630,29719,0
66582744,29143,0
66586525,31383,0
66589717,32856,0
66592839,32423,0
66595976,29975,0
66599107,28951,0
66602228,29991,0
66605361,31287,0
66608460,31367,0
66611618,30295,0
66614741,31015,0
66617837,36120,0
66620943,43770,0
66624067,51468,0
66627180,56317,0
66630321,59294,0
66633435,63055,0
66636507,63599,0
66640324,57277,0
66643418,45227,0
66646484,32327,0
66649627,25318,0
66652770,25990,0
66655903,30791,0
66659020,34552,0
66662148,34664,0
66665295,33176,0
66668397,32984,0
66671475,33624,0
66674617,33208,0
66677720,30615,0
66680838,28534,0
66684495,29399,0
66687684,31383,0
66690767,33048,0
66693855,31447,0
66704258,32071,0
66707359,33384,0
66710410,32263,0
66713537,29735,0
66717427,29975,0
66720483,31815,0
66723651,33448,0
66726756,32279,0
66729902,30007,0
66733009,29479,0
66736099,31479,0
66739211,33336,0
66742327,33032,0
66745424,30663,0
66748493,29591,0
66751651,30647,0
66754730,32711,0
66757811,33144,0
66760915,31463,0
66763981,29239,0
66767761,29799,0
66770862,31927,0
66773980,33272,0
66777085,31927,0
66780141,29575,0
66783232,29687,0
66786368,31319,0
66789423,33384,0
66792534,33048,0
66795704,30903,0
66798836,30103,0
66801940,32151,0
66805063,35096,0
66808150,37017,0
66811259,36376,0
66814382,35640,0
66817440,36905,0
66820552,39561,0
66823666,41210,0
66826777,40585,0
66829878,38377,0
66832971,38521,0
66836049,40185,0
66839817,42954,0
66842950,43402,0
66846070,42026,0
66849873,41802,0
66852979,43898,0
66856073,45931,0
66859165,45499,0
66862304,43210,0
66865415,41610,0
66868461,42890,0
66871550,44602,0
66874704,45147,0
66877796,43274,0
66880938,40889,0
66884065,40873,0
66887153,42474,0
66890246,43354,0
66893358,42138,0
66896431,39961,0
66899529,39113,0
66903317,40713,0
66906403,42122,0
66909513,41306,0
66912673,38873,0
66915805,37881,0
66918942,39513,0
66922046,41370,0
66925121,41626,0
66928200,39593,0
66931306,37977,0
66934390,38361,0
66937481,40137,0
66940614,41098,0
66943726,39865,0
66946828,37401,0
66949946,37225,0
66953063,38889,0
66956146,40777,0
66959208,40633,0
66962317,38537,0
66966101,36873,0
66969199,37913,0
66972326,39593,0
66976088,39513,0
66979166,37545,0
66982263,36232,0
66986088,37769,0
66989159,39257,0
66992250,39641,0
66995358,37257,0
66998434,35720,0
67001507,36712,0
67004650,38921,0
67007773,39753,0
67010855,37609,0
67013958,35240,0
67017074,35048,0
67020148,36392,0
67023251,37545,0
67026379,36168,0
67029436,33224,0
67032537,32007,0
67035725,33240,0
67038824,34856,0
67042607,34232,0
67045693,31015,0
67048783,28855,0
67051893,29239,0
67054980,30615,0
67058069,30903,0
67061150,28662,0
67064278,26614,0
67067407,26710,0
67070466,28518,0
67073561,29767,0
67076705,28807,0
67079807,26454,0
67082890,25814,0
67085971,27414,0
67089056,29271,0
67092144,29399,0
67095220,27334,0
67098332,26022,0
67101435,27590,0
67104477,30167,0
67108288,31207,0
67111400,29319,0
67115119,27382,0
67118920,28550,0
67122015,30743,0
67125088,31079,0
67128194,29095,0
67131315,27814,0
67134410,29511,0
67137481,31767,0
67140647,32551,0
67143744,30695,0
67146823,27382,0
67149955,26502,0
67153062,27686,0
67156143,29335,0
67159244,29095,0
67162364,26662,0
67165392,25222,0
67168491,26294,0
67171648,28230,0
67174720,28839,0
67178441,26118,0
67181556,24261,0
67184723,25174,0
67187824,27478,0
67190950,28406,0
67194053,27414,0
67197157,25350,0
67200247,25174,0
67203371,27142,0
67206475,28727,0
67209633,27894,0
67212725,25078,0
67215827,23317,0
67218935,24934,0
67222008,28935,0
67225080,32359,0
67228166,35160,0
67231252,39321,0
67234373,46891,0
67237423,54765,0
67240535,61487,0
67244398,63071,0
67247425,57582,0
67250554,47979,0
67254350,35976,0
67257438,28214,0
67260536,23253,0
67263699,22405,0
67266815,25526,0
67269921,30471,0
67273049,33096,0
67276138,31783,0
67279212,27574,0
67282340,24726,0
67285401,25318,0
67288509,27110,0
67291664,27830,0
67294733,25910,0
67297807,24421,0
67300895,25046,0
67303974,27110,0
67307053,28743,0
67310803,27286,0
67313908,24934,0
67317026,24838,0
67320126,26662,0
67323244,28358,0
67326984,27622,0
67330088,25414,0
67333200,24998,0
67336324,26886,0
67339415,28967,0
67342446,28470,0
67345562,26486,0
67348690,24966,0
67351793,26374,0
67354872,28823,0
67357977,29703,0
67361093,28118,0
67364163,25974,0
67367231,26246,0
67370334,28198,0
67374132,29783,0
67377908,27990,0
67380995,26230,0
67384099,26774,0
67387196,28823,0
67390303,30455,0
67393414,29735,0
67396496,27366,0
67399646,27334,0
67402759,29095,0
67405834,31191,0
67408929,31271,0
67412011,29415,0
67415103,27894,0
67418191,29079,0
67421300,31719,0
67424422,32808,0
67427472,31255,0
67430610,29015,0
67433735,29191,0
67436816,31175,0
67439945,32920,0
67443066,32567,0
67446856,29831,0
67449971,29799,0
67453066,31527,0
67456136,33720,0
67459214,33592,0
67462327,31591,0
67465426,30359,0
67468489,31687,0
67471652,33432,0
67474747,33864,0
67477840,32023,0
67480943,29959,0
67484021,30279,0
67487111,32295,0
67490190,33816,0
67493312,33096,0
67496432,30807,0
67499485,30071,0
67502622,31495,0
67505701,33592,0
67508787,33512,0
67511886,31431,0
67514943,29511,0
67518053,30423,0
67521152,33064,0
67524218,33992,0
67527335,32567,0
67530424,30535,0
67533494,30519,0
67537286,32824,0
67540438,34152,0
67543505,32888,0
67546651,30679,0
67549750,30359,0
67552820,32407,0
67555954,34472,0
67559033,34504,0
67562117,32407,0
67565207,30791,0
67568327,31687,0
67571404,33784,0
67574498,34584,0
67577658,33336,0
67581405,31383,0
67584513,31879,0
67587662,34328,0
67590783,35544,0
67593858,34456,0
67596970,32263,0
67600061,31927,0
67603154,34040,0
67606267,36184,0
67609389,35656,0
67612445,33240,0
67615528,32023,0
67618670,33384,0
67621736,35800,0
67624845,36408,0
67627948,35016,0
67631034,33080,0
67634121,33896,0
67637199,36200,0
67640293,37769,0
67643436,37225,0
67646473,34760,0
67649623,34056,0
67652729,35896,0
67655826,37865,0
67658909,38121,0
67661992,36168,0
67665093,34344,0
67668869,35624,0
67671978,37593,0
67675056,38041,0
67678150,36120,0
67681234,34360,0
67684355,35080,0
67687410,37241,0
67690512,38601,0
67693633,38025,0
67696726,36264,0
67699805,36312,0
67702899,38057,0
67705988,40057,0
67709088,40009,0
67712170,37689,0
67715252,36088,0
67719082,37337,0
67722174,39321,0
67725287,40009,0
67728399,38553,0
67731439,37065,0
67734544,37593,0
67737717,39081,0
67740788,39145,0
67743904,37177,0
67747488,33784,0
67750672,33480,0
67753746,35368,0
67756818,36584,0
67759904,36008,0
67762971,33496,0
67766059,32391,0
67769158,33496,0
67772240,35656,0
67775358,35640,0
67779143,33048,0
67782902,32183,0
67785976,33448,0
67789087,35352,0
67792160,35672,0
67795241,33736,0
67798383,31671,0
67801434,32679,0
67804533,34136,0
67807693,34552,0
67810798,32439,0
67813886,30727,0
67817010,32583,0
67820085,38057,0
67823191,44858,0
67826289,51212,0
67829403,55437,0
67832470,60430,0
67835621,64223,0
67838714,64255,0
67841797,63775,0
67844867,56333,0
67847986,42922,0
67851083,32487,0
67854891,28951,0
67857976,30487,0
67861113,32471,0
67864197,33704,0
67867314,35000,0
67870434,35736,0
67873481,35640,0
67876644,33224,0
67879749,29687,0
67882894,28679,0
67886006,30119,0
67889104,32615,0
67892176,33048,0
67895294,30727,0
67898414,28983,0
67901451,29335,0
67904558,31367,0
67907726,32551,0
67910815,30951,0
67913962,28919,0
67917764,29191,0
67920855,30967,0
67923950,32439,0
67927039,31399,0
67930129,29223,0
67933249,28743,0
67936383,30407,0
67939433,32263,0
67943270,31783,0
67951556,30279,0
67954700,33176,0
67957818,34328,0
67960966,32840,0
67964740,29975,0
67967855,30151,0
67970989,31975,0
67974069,33352,0
67977155,32423,0
67980262,30167,0
67984090,30295,0
67987207,32151,0
67990316,33640,0
67993419,32904,0
67996528,30487,0
67999700,29943,0
68002826,31799,0
68005930,34248,0
68009040,34440,0
68012140,32167,0
68015262,30599,0
68018400,31847,0
68021471,34120,0
68024652,34856,0
68027737,33368,0
68030819,31255,0
68033969,31671,0
68037059,33496,0
68040162,35048,0
68043245,34504,0
68047062,31703,0
68050192,31319,0
68053312,33144,0
68056419,34856,0
68059465,34136,0
68062621,31367,0
68065710,29783,0
68068795,30903,0
68072637,33144,0
68075745,32583,0
68078850,30247,0
68081919,28646,0
68084985,29527,0
68088109,31383,0
68091206,31927,0
68094322,30071,0
68097442,27846,0
68100480,27782,0
68103637,29783,0
68106733,31319,0
68109835,30615,0
68112936,28342,0
68116707,27318,0
68119816,29143,0
68122916,31047,0
68125996,30775,0
68129098,28486,0
68132150,27158,0
68135295,28262,0
68138422,30519,0
68141456,31271,0
68144548,29367,0
68147666,27478,0
68150745,27894,0
68153856,30055,0
68156970,31671,0
68160050,30695,0
68163135,28422,0
68166225,27494,0
68169358,29159,0
68172409,31271,0
68176176,31319,0
68178688,29719,0
68182450,28118,0
68185516,29431,0
68188675,31591,0
68191763,32215,0
68194861,30615,0
68198004,28630,0
68201114,29015,0
68204886,31671,0
68207999,32471,0
68211076,31047,0
68214156,29047,0
68217244,28951,0
68220397,30967,0
68223459,32984,0
68226611,32039,0
68229708,29911,0
68232796,29175,0
68235917,30871,0
68238989,32743,0
68242052,33432,0
68245137,31111,0
68248211,29431,0
68252009,30663,0
68255099,32776,0
68258171,33240,0
68261238,31559,0
68264353,29575,0
68267433,29847,0
68270480,31703,0
68273559,33544,0
68276688,32856,0
68279796,30359,0
68282891,29847,0
68285976,31911,0
68289071,34488,0
68292189,35144,0
68295307,33496,0
68298437,31767,0
68301483,32423,0
68304635,34856,0
68307708,35800,0
68310815,34328,0
68314531,31687,0
68317649,32375,0
68321415,35704,0
68324462,37113,0
68327570,35864,0
68330696,32968,0
68333783,32151,0
68336903,33176,0
68340017,34248,0
68343793,32776,0
68346903,30279,0
68349985,29703,0
68353093,31255,0
68356197,33256,0
68359311,33000,0
68362413,30695,0
68365513,29095,0
68368658,30023,0
68371755,32007,0
68374850,33064,0
68377961,31271,0
68381042,29351,0
68384123,29751,0
68387821,32071,0
68390942,33416,0
68394031,31911,0
68397120,29111,0
68400241,27974,0
68403363,29063,0
68406432,30935,0
68409525,31767,0
68412684,32551,0
68415772,36248,0
68418884,43946,0
68421998,53244,0
68425075,60334,0
68428156,64063,0
68431246,64111,0
68434369,62559,0
68437411,56525,0
68440516,46411,0
68443681,34232,0
68447443,24790,0
68450492,25078,0
68453565,30231,0
68457393,36200,0
68460434,36520,0
68463564,33448,0
68466709,31175,0
68469796,31111,0
68472905,32439,0
68475994,32279,0
68479766,29911,0
68482869,29687,0
68485997,30999,0
68489061,33304,0
68492141,33656,0
68495225,31527,0
68498339,29687,0
68501403,30487,0
68504452,32695,0
68507567,34232,0
68510695,33224,0
68513802,30695,0
68516936,30791,0
68520040,32888,0
68523170,34648,0
68526265,34520,0
68529391,32535,0
68532451,31607,0
68535586,32984,0
68538708,34936,0
68541811,35416,0
68544904,33608,0
68548027,31943,0
68551104,32151,0
68554204,34408,0
68557322,35592,0
68560412,34712,0
68563505,32551,0
68566641,31911,0
68569731,33816,0
68572820,35752,0
68575897,35832,0
68578993,33768,0
68582099,32295,0
68585168,33640,0
68588233,35512,0
68591357,36392,0
68594426,35224,0
68598214,32936,0
68601350,33544,0
68604437,35704,0
68608267,36520,0
68611380,34616,0
68614443,32567,0
68617531,32647,0
68620686,34584,0
68623789,35976,0
68626905,35240,0
68629992,32904,0
68633080,32231,0
68636181,34120,0
68639292,36008,0
68642418,35912,0
68645464,34040,0
68648567,32567,0
68651688,33400,0
68654792,35432,0
68657874,36136,0
68660974,34472,0
68664050,31975,0
68667127,31591,0
68670217,33384,0
68673341,34952,0
68676429,34184,0
68679469,31655,0
68682571,30183,0
68685708,31271,0
68688785,32904,0
68691880,33176,0
68694975,31159,0
68698050,29015,0
68701119,29351,0
68704208,31463,0
68707338,32792,0
68710404,31687,0
68713441,29527,0
68716536,28566,0
68719678,30487,0
68723448,32263,0
68727228,31063,0
68730360,28695,0
68733449,28518,0
68736588,30487,0
68739728,32503,0
68742816,32535,0
68745928,30215,0
68749026,28743,0
68752131,30423,0
68755222,32215,0
68758352,33160,0
68761421,31159,0
68764472,29271,0
68767586,29623,0
68770707,31399,0
68773794,33144,0
68776848,32423,0
68779952,30151,0
68783053,29447,0
68786160,31047,0
68789258,33080,0
68792363,33224,0
68795419,31143,0
68798538,29351,0
68802387,30791,0
68805471,32792,0
68809259,33064,0
68812397,30727,0
68815465,29447,0
68818560,30439,0
68821724,32711,0
68824808,33496,0
68827937,32039,0
68831025,29639,0
68834087,30023,0
68837192,31959,0
68840330,33240,0
68843434,32647,0
68846459,30215,0
68849555,29479,0
68852694,30759,0
68855771,32936,0
68858898,33400,0
68861989,30967,0
68865081,29703,0
68868171,30567,0
68871247,32503,0
68874356,33592,0
68877404,32583,0
68880527,30119,0
68884374,29975,0
68887446,32039,0
68890622,33320,0
68893746,32215,0
68896818,29991,0
68899926,29511,0
68903019,31031,0
68906113,32679,0
68909210,32936,0
68912324,31543,0
68915413,30359,0
68918528,32119,0
68921680,34712,0
68924762,35832,0
68927855,34024,0
68930934,31767,0
68934035,31623,0
68937109,33736,0
68940196,35256,0
68943326,34696,0
68946411,32952,0
68949508,32519,0
68952645,34248,0
68955745,36024,0
68958842,35992,0
68961948,32872,0
68965017,30663,0
68968101,30519,0
68971220,32423,0
68974343,33464,0
68977415,31735,0
68980445,29367,0
68983570,28855,0
68986699,30759,0
68989805,32679,0
68992904,32359,0
68996011,29991,0
68999105,28999,0
69002203,29991,0
69005301,31991,0
69008401,32679,0
69011445,30999,0
69014550,28903,0
69018837,29911,0
69022142,31671,0
69025245,31767,0
69028356,29191,0
69031421,27206,0
69034489,28374,0
69037626,32023,0
69040705,36536,0
69043802,40121,0
69046896,44106,0
69049982,50268,0
69053099,57982,0
69056181,64287,0
69059313,64063,0
69062441,60174,0
69065503,49916,0
69068648,39385,0
69071776,31863,0
69075536,27910,0
69078656,27462,0
69081701,28598,0
69084790,32119,0
69087907,35096,0
69090997,35560,0
69094094,32199,0
69097169,28374,0
69100255,27078,0
69103356,28743,0
69106423,30519,0
69109509,30679,0
69112637,28791,0
69115725,27718,0
69118805,28486,0
69121902,30839,0
69125669,31159,0
69128768,29079,0
69131892,27462,0
69135003,28390,0
69138088,30535,0
69141196,31751,0
69144325,30359,0
69147432,28342,0
69150501,28214,0
69153657,30263,0
69156740,31735,0
69159839,31431,0
69162940,29255,0
69166046,28086,0
69169129,29479,0
69172238,31559,0
69175354,32551,0
69178412,30487,0
69181513,28775,0
69184669,28951,0
69187741,31303,0
69190850,32535,0
69199109,29351,0
69202258,30967,0
69206068,33864,0
69209204,33864,0
69212382,31271,0
69215489,29863,0
69218666,30727,0
69221795,32920,0
69224931,33752,0
69228031,32375,0
69231140,30311,0
69234700,31015,0
69238049,33304,0
69241186,34376,0
69244301,33432,0
69247418,31159,0
69250510,31047,0
69253678,33016,0
69257411,34664,0
69260499,33672,0
69264303,31031,0
69267319,31143,0
69270415,33352,0
69273532,35032,0
69276727,34696,0
69279859,32471,0
69283014,31703,0
69286803,33544,0
69289943,35256,0
69293053,34824,0
69296173,32055,0
69299286,30567,0
69302402,31671,0
69305452,33784,0
69308622,33992,0
69311736,31735,0
69314842,29479,0
69317941,29735,0
69321031,32007,0
69324139,33432,0
69327247,32199,0
69330365,29863,0
69333427,29223,0
69336538,30823,0
69339705,32727,0
69342829,32663,0
69345964,30759,0
69349076,29671,0
69352195,31063,0
69355298,33128,0
69358428,33576,0
69361503,31879,0
69364661,29607,0
69367779,30167,0
69370858,32279,0
69373956,33816,0
69377035,32856,0
69380144,30663,0
69383258,29975,0
69386370,31655,0
69390155,33944,0
69393283,33560,0
69396393,30951,0
69400146,30231,0
69403258,32167,0
69406387,34520,0
69409465,34232,0
69412654,31927,0
69415775,30375,0
69418865,31351,0
69422682,33560,0
69425813,33800,0
69428937,31767,0
69432073,29911,0
69435184,30647,0
69438306,33064,0
69441427,33688,0
69444503,32279,0
69448288,29607,0
69451442,30103,0
69454516,32071,0
69457681,33192,0
69460789,31815,0
69463915,29415,0
69467015,29255,0
69470134,31143,0
69473208,33112,0
69476345,33000,0
69480159,30487,0
69483263,29975,0
69486331,31527,0
69489444,33400,0
69492521,33528,0
69495681,31559,0
69498818,29831,0
69501918,30887,0
69505029,32679,0
69508090,33864,0
69511218,32183,0
69514306,30215,0
69517443,30151,0
69520496,31591,0
69523007,33368,0
69526098,33272,0
69529207,31031,0
69532988,29287,0
69536123,30823,0
69539211,33144,0
69542324,33416,0
69545450,31287,0
69548509,29543,0
69551655,30759,0
69555456,34264,0
69558512,35128,0
69561646,33928,0
69564747,31911,0
69567862,32247,0
69570991,34520,0
69574064,35560,0
69577148,34248,0
69580240,31287,0
69583373,31111,0
69586423,33592,0
69589535,36152,0
69592703,36312,0
69595810,33864,0
69598926,31239,0
69602040,31431,0
69605148,33224,0
69608280,33784,0
69611426,31927,0
69615243,29607,0
69618363,30375,0
69621425,32263,0
69624532,33048,0
69627678,31527,0
69630798,29159,0
69633944,28887,0
69637046,30903,0
69640131,32631,0
69643261,32487,0
69646365,30087,0
69649431,29383,0
69652519,30391,0
69655667,32519,0
69659399,32679,0
69662470,30087,0
69665634,27750,0
69669445,29047,0
69672514,31607,0
69675627,34040,0
69678698,35080,0
69681791,37449,0
69684894,43194,0
69688001,51084,0
69691825,59390,0
69694951,62223,0
69698060,60350,0
69701188,55021,0
69704300,47483,0
69707420,39401,0
69710496,32103,0
69713645,26854,0
69716745,27110,0
69719854,31239,0
69722968,35384,0
69726085,36504,0
69729194,33496,0
69732306,30423,0
69735427,30135,0
69738498,31175,0
69741573,31895,0
69744693,30663,0
69748464,28582,0
69751526,29239,0
69754640,31063,0
69757755,32215,0
69760892,31111,0
69764011,28871,0
69767119,28582,0
69770253,30487,0
69773344,32487,0
69776449,32535,0
69779541,30263,0
69782674,28983,0
69785783,29959,0
69788914,32087,0
69792016,32856,0
69795157,31319,0
69798938,29319,0
69802719,30743,0
69805800,32711,0
69808899,33192,0
69811989,31431,0
69815104,29799,0
69818207,30231,0
69821329,32231,0
69824432,33528,0
69827545,32359,0
69830683,30055,0
69833798,29927,0
69836922,31863,0
69840059,33928,0
69843144,33720,0
69846263,31495,0
69849394,30135,0
69852477,31383,0
69855573,33464,0
69858717,34248,0
69861824,32888,0
69864950,30871,0
69868046,31543,0
69871788,34200,0
69874953,35064,0
69878049,33640,0
69881161,31415,0
69884968,31847,0
69888078,33960,0
69891174,35000,0
69894297,33672,0
69897402,31543,0
69900479,31591,0
69903634,33448,0
69906717,35176,0
69909828,34792,0
69912943,32808,0
69916055,31719,0
69919169,33112,0
69922269,35160,0
69925404,35672,0
69928455,34040,0
69931562,31895,0
69934763,32023,0
69937810,33512,0
69940934,34840,0
69944052,33768,0
69947183,31399,0
69950301,30967,0
69953402,32359,0
69956463,33816,0
69959630,33624,0
69962710,31047,0
69966488,29655,0
69969644,31143,0
69972779,33192,0
69975910,33368,0
69979028,31575,0
69982141,29943,0
69985249,30807,0
69988381,32776,0
69991437,33976,0
69994523,32615,0
69997682,30247,0
70000760,30279,0
70003868,32391,0
70006997,33928,0
70010120,33304,0
70013241,31015,0
70017024,30199,0
70020158,32119,0
70023289,33832,0
70026403,33704,0
70029480,31463,0
70032637,30423,0
70035765,31431,0
70038846,33432,0
70041976,34072,0
70045077,32551,0
70048191,30503,0
70051307,30791,0
70054415,33064,0
70057474,34440,0
70060637,33720,0
70063753,31223,0
70067555,31207,0
70071339,33528,0
70074451,34984,0
70077519,34200,0
70080669,31719,0
70084401,31671,0
70087513,33352,0
70090697,34936,0
70093771,34344,0
70096903,31895,0
70100725,31223,0
70103830,32856,0
70106987,34520,0
70110064,33928,0
70113182,31655,0
70116311,30727,0
70119433,32311,0
70122503,34072,0
70125635,34408,0
70128741,32471,0
70131826,30503,0
70134953,31047,0
70138076,33368,0
70141211,34392,0
70144323,33080,0
70147437,30807,0
70150533,30599,0
70153639,32455,0
70156751,34152,0
70159879,33624,0
70162993,31799,0
70166121,30711,0
70169240,32471,0
70172352,35048,0
70175432,35832,0
70178521,34392,0
70181667,32423,0
70184821,32984,0
70187942,34968,0
70191059,36280,0
70194166,34824,0
70197279,32503,0
70200392,32519,0
70203534,34536,0
70206583,36632,0
70209755,36584,0
70212915,33736,0
70216054,31719,0
70219175,31991,0
70222294,33784,0
70225395,34344,0
70228468,32439,0
70231634,30471,0
70235426,31127,0
70238532,33048,0
70241695,33624,0
70244794,32135,0
70247924,29479,0
70251027,29415,0
70254149,31479,0
70257249,33240,0
70260355,32503,0
70263430,29991,0
70266513,29367,0
70269676,30759,0
70272779,33032,0
70275943,33160,0
70279053,30375,0
70282186,27878,0
70285331,28454,0
70288458,30855,0
70292251,34088,0
70296005,35736,0
70299134,38729,0
70302264,45179,0
70305367,52860,0
70308429,59214,0
70311548,62543,0
70314694,60910,0
70317777,56221,0
70320870,48363,0
70323989,40505,0
70327057,33112,0
70330127,27430,0
70333219,26966,0
70337015,31687,0
70340773,35992,0
70343869,35464,0
70346956,32135,0
70350078,29751,0
70353192,30151,0
70356315,31239,0
70359424,31303,0
70362467,29511,0
70365633,27766,0
70369433,29287,0
70372479,31191,0
70375638,31703,0
70378735,30231,0
70381822,28246,0
70384939,28919,0
70388035,31015,0
70391117,32423,0
70394193,31559,0
70397288,29143,0
70400390,28727,0
70403426,30695,0
70406506,32487,0
70409658,32535,0
70412791,30599,0
70415876,28983,0
70418976,30375,0
70422063,32359,0
70425814,33064,0
70428896,31287,0
70432001,29511,0
70435094,30311,0
70438192,32231,0
70441313,33592,0
70444425,32391,0
70452689,31783,0
70455801,34392,0
70458926,35272,0
70462053,33352,0
70465201,31079,0
70468342,31687,0
70471450,33720,0
70474506,34952,0
70477648,33816,0
70480728,31207,0
70483825,30983,0
70486931,32695,0
70490042,34952,0
70493142,34952,0
70496234,32567,0
70499342,31271,0
70503160,32888,0
70506276,35048,0
70509393,35048,0
70512914,32727,0
70516154,31431,0
70519259,32920,0
70522395,35080,0
70525449,35720,0
70528554,33992,0
70531691,32007,0
70534785,32535,0
70537891,34616,0
70540988,35944,0
70544070,34904,0
70547185,32599,0
70550308,31943,0
70553425,33368,0
70556527,35096,0
70559694,34648,0
70562792,32519,0
70565874,30983,0
70568982,31719,0
70572080,33720,0
70575171,34456,0
70578247,33080,0
70581384,30519,0
70584477,30631,0
70587581,32535,0
70590694,34328,0
70593754,33240,0
70596858,30727,0
70599983,29911,0
70603092,31687,0
70606197,33736,0
70609291,34008,0
70612402,31783,0
70615458,30215,0
70618545,30919,0
70621702,33048,0
70624812,34200,0
70627891,33080,0
70630981,30983,0
70634067,30423,0
70637154,32007,0
70640249,33864,0
70643382,33912,0
70646425,31335,0
70649518,30039,0
70652661,31127,0
70655739,33672,0
70658826,34120,0
70661898,32679,0
70665002,30423,0
70668102,30935,0
70671185,32904,0
70674267,34376,0
70677388,33608,0
70680433,31431,0
70683557,30551,0
70686719,32343,0
70689850,34184,0
70692951,34008,0
70696745,31223,0
70699833,30407,0
70702976,31543,0
70706085,33688,0
70709167,34264,0
70712238,32711,0
70715371,30887,0
70718434,31223,0
70721968,33288,0
70725232,34296,0
70728338,32471,0
70731452,30535,0
70734514,30631,0
70737698,32856,0
70740802,34616,0
70743874,33688,0
70746998,31239,0
70750098,30439,0
70753192,31959,0
70756270,34104,0
70759377,34088,0
70762440,32023,0
70765520,30599,0
70768683,31319,0
70772436,33864,0
70775475,34424,0
70778635,32407,0
70781738,30519,0
70784834,30871,0
70787921,32695,0
70791012,34168,0
70794079,33512,0
70797153,31255,0
70800279,30599,0
70803383,32247,0
70806466,35048,0
70809537,35816,0
70812667,34024,0
70815740,32583,0
70818808,33608,0
70821919,35656,0
70825045,36552,0
70828141,35304,0
70831238,32968,0
70834360,32840,0
70837463,34984,0
70840511,36985,0
70843660,36921,0
70846802,34664,0
70849905,33096,0
70853012,33736,0
70856107,35064,0
70859163,34888,0
70862259,32439,0
70865367,30407,0
70868454,30887,0
70871592,33160,0
70874684,34536,0
70877753,33000,0
70880829,30647,0
70883945,30055,0
70887049,31847,0
70890149,33480,0
70893271,33000,0
70896395,30759,0
70899500,29703,0
70902646,30823,0
70905744,33064,0
70908848,33576,0
70911975,31623,0
70915068,29335,0
70918163,29079,0
70921242,30311,0
70924366,31751,0
70927464,31831,0
70930523,32407,0
70934291,36648,0
70937427,44362,0
70940477,51676,0
70943644,56765,0
70946778,59902,0
70949927,62255,0
70953019,61935,0
70956121,56781,0
70959224,46235,0
70962329,34920,0
70965456,27238,0
70968516,26902,0
70972392,32695,0
70975435,36056,0
70978532,35576,0
70981699,33144,0
70984807,32023,0
70987923,32183,0
70991048,32455,0
70994118,31095,0
70997194,29063,0
71000317,28390,0
71003425,30263,0
71006525,32087,0
71009569,32327,0
71012721,30391,0
71015809,28310,0
71018912,29159,0
71022009,31031,0
71025117,32567,0
71028189,31239,0
71031285,28871,0
71034408,28983,0
71037471,31255,0
71040536,32776,0
71043655,32023,0
71047449,29255,0
71050486,29335,0
71053581,30871,0
71056725,32695,0
71059797,32647,0
71062866,30663,0
71065961,29143,0
71069040,29879,0
71072132,32279,0
71075220,33176,0
71078333,31591,0
71081458,29463,0
71084514,29671,0
71087682,31479,0
71090779,33416,0
71093896,32535,0
71097004,30471,0
71100071,29591,0
71103843,31863,0
71106962,33800,0
71110034,33688,0
71113143,31127,0
71116273,29799,0
71119392,31303,0
71122441,33496,0
71125529,34232,0
71128676,32487,0
71131758,30407,0
71134845,30775,0
71137931,33160,0
71141706,34568,0
71144516,33256,0
71147760,31367,0
71150849,31367,0
71153952,33240,0
71157050,35384,0
71160150,34936,0
71163238,32151,0
71166352,31127,0
71169441,32247,0
71172502,34328,0
71175663,35000,0
71178764,33096,0
71181867,31111,0
71184977,31111,0
71188080,32727,0
71191187,33912,0
71194275,32567,0
71197407,30359,0
71200472,29495,0
71203565,31063,0
71206710,32695,0
71209804,32183,0
71212880,29879,0
71215989,28294,0
71219084,28807,0
71222167,31095,0
71225246,31783,0
71228374,30167,0
71231455,28070,0
71234505,27942,0
71238303,30103,0
71241382,31367,0
71244440,30215,0
71247517,28102,0
71250675,27414,0
71253732,29143,0
71256800,31079,0
71259897,31207,0
71262995,28807,0
71266136,27478,0
71269217,28358,0
71272325,30599,0
71276128,31671,0
71279889,29031,0
71282980,28038,0
71286085,29031,0
71289179,31015,0
71292285,32183,0
71295414,29943,0
71298472,27910,0
71301549,28486,0
71304714,30679,0
71307817,32535,0
71310912,31255,0
71313988,28887,0
71317108,28214,0
71320195,30119,0
71323282,32087,0
71326371,32263,0
71329454,30119,0
71332490,28598,0
71335642,29639,0
71338727,31191,0
71341830,32439,0
71344913,31223,0
71348009,28983,0
71351106,29079,0
71354812,31415,0
71357936,33288,0
71361047,31879,0
71364128,29575,0
71367231,28823,0
71370362,30887,0
71374142,33368,0
71377223,32679,0
71380342,30391,0
71383457,29303,0
71386492,30791,0
71389596,32920,0
71392704,33288,0
71395792,31511,0
71398950,29783,0
71402049,30631,0
71405140,32920,0
71408226,34152,0
71411386,32599,0
71414430,30759,0
71417526,30423,0
71420671,32359,0
71423761,33752,0
71426859,33256,0
71429972,30903,0
71433072,29175,0
71436161,30231,0
71439255,32439,0
71442377,33240,0
71445427,31287,0
71448535,29399,0
71451688,29591,0
71455461,32119,0
71458510,33128,0
71461685,31735,0
71464808,29559,0
71467909,29783,0
71471000,31719,0
71474088,33672,0
71477196,33288,0
71480303,31687,0
71483433,31319,0
71486471,33496,0
71489647,35608,0
71492749,35592,0
71495869,33432,0
71498969,31063,0
71502060,31959,0
71505171,33896,0
71508271,35144,0
71512077,34408,0
71515163,32968,0
71518233,33608,0
71521338,35160,0
71524473,35464,0
71527513,33720,0
71530651,30903,0
71533765,30103,0
71536852,31431,0
71539959,33480,0
71543055,33672,0
71546796,30855,0
71550524,29879,0
71553673,31367,0
71556750,33192,0
71559820,33208,0
71562940,30999,0
71566537,29255,0
71569726,30471,0
71572803,32856,0
71575879,33400,0
71578987,31143,0
71582076,29031,0
71585162,29479,0
71588245,30983,0
71591362,31703,0
71594453,30407,0
71597493,28486,0
71600574,29751,0
71603735,34920,0
71606824,41754,0
71609912,48171,0
71613004,51868,0
71616091,55421,0
71619172,61230,0
71622271,64175,0
71625365,62431,0
71628450,53244,0
71631495,41018,0
71634656,31015,0
71637739,27558,0
71640845,29191,0
71643926,31543,0
71647736,32439,0
71650844,33304,0
71653938,33720,0
71657031,34008,0
71660114,32215,0
71663185,29415,0
71666270,27462,0
71669369,28711,0
71672426,31207,0
71675524,32183,0
71678691,30551,0
71681852,28486,0
71684947,28518,0
71688062,30679,0
71691179,32247,0
71700882,28935,0
71704001,31159,0
71707101,33064,0
71710207,33112,0
71713390,30471,0
71716451,29143,0
71719553,30039,0
71722715,32343,0
71725834,32984,0
71728935,31591,0
71732026,29351,0
71735102,29943,0
71738193,31735,0
71741263,33432,0
71744382,32599,0
71747429,30199,0
71750532,29751,0
71753684,31495,0
71756812,33464,0
71759955,33496,0
71763099,31239,0
71766246,30103,0
71769381,31495,0
71772438,33560,0
71776287,33912,0
71779417,32199,0
71783156,30551,0
71786299,31895,0
71789419,34136,0
71792491,34536,0
71795671,32904,0
71798799,30903,0
71801937,31895,0
71805051,33992,0
71808165,35064,0
71811322,34072,0
71814452,32119,0
71817522,31831,0
71820682,33816,0
71823794,35816,0
71826918,35432,0
71830050,33080,0
71833156,31911,0
71836290,33288,0
71839396,35656,0
71842477,36088,0
71845577,34152,0
71848731,32023,0
71851854,32487,0
71854981,34360,0
71858084,35992,0
71861213,34696,0
71865010,31783,0
71868120,31751,0
71871245,33128,0
71874333,34424,0
71877431,33464,0
71880500,30983,0
71883646,30071,0
71886770,31271,0
71889893,33208,0
71893021,33512,0
71896152,31463,0
71899238,29527,0
71902367,30231,0
71905466,31959,0
71909256,32776,0
71912399,31015,0
71915487,29335,0
71918660,30103,0
71921785,31783,0
71924933,33384,0
71928060,31991,0
71931179,29367,0
71934302,29495,0
71937430,31671,0
71940504,33320,0
71944323,32727,0
71948134,30087,0
71951261,30167,0
71954351,32119,0
71957458,33656,0
71960524,33400,0
71963696,30935,0
71966824,30119,0
71969925,31511,0
71973044,33512,0
71976139,34104,0
71979273,32215,0
71982373,30407,0
71985466,31223,0
71988524,33224,0
71991666,34568,0
71995391,32567,0
71999225,30359,0
72002347,31191,0
72005430,33336,0
72008533,34632,0
72011683,33176,0
72014790,31031,0
72017911,31031,0
72021013,32583,0
72024142,34248,0
72027235,33896,0
72030361,31463,0
72033441,30695,0
72036574,32135,0
72039749,34088,0
72043546,34200,0
72046674,31895,0
72049793,30727,0
72052952,32103,0
72056053,34040,0
72059157,34552,0
72062258,32535,0
72065376,30519,0
72068477,31383,0
72071577,33752,0
72074745,34664,0
72078559,33064,0
72082372,30583,0
72085473,31447,0
72088517,33352,0
72091680,34360,0
72094751,33128,0
72097817,30695,0
72100916,30551,0
72104012,32263,0
72107096,34296,0
72110183,34072,0
72113273,31991,0
72116411,30583,0
72119459,31591,0
72122559,33720,0
72125712,34776,0
72128829,32968,0
72131939,30999,0
72135040,31495,0
72138123,33736,0
72141227,35112,0
72144350,34472,0
72147456,31831,0
72150518,31143,0
72153665,32487,0
72156753,34632,0
72159834,35000,0
72162959,32583,0
72166082,31111,0
72169194,31831,0
72172292,33736,0
72175412,34712,0
72179221,32695,0
72182315,30935,0
72185415,31559,0
72188463,33608,0
72191561,34920,0
72194726,33736,0
72197831,31351,0
72200908,30663,0
72204037,32375,0
72207766,34648,0
72210849,33928,0
72214040,31815,0
72217127,30983,0
72220251,32407,0
72223384,34360,0
72226441,34600,0
72229559,32263,0
72232712,30791,0
72235815,31607,0
72238923,33768,0
72242026,35256,0
72245111,33448,0
72248194,31015,0
72251291,30967,0
72254422,33048,0
72257463,34920,0
72260562,34552,0
72263691,32183,0
72266768,31335,0
72269861,32679,0
72273573,34728,0
72276747,34664,0
72279843,32647,0
72282942,31319,0
72286047,32359,0
72289124,34440,0
72292201,35304,0
72295331,33640,0
72298461,31527,0
72301475,31559,0
72304571,33224,0
72307720,34952,0
72310800,34104,0
72313952,31527,0
72317091,30711,0
72320187,32535,0
72323316,34456,0
72326430,34760,0
72329477,32679,0
72332583,30727,0
72335738,31687,0
72338856,33832,0
72341937,34648,0
72345038,33384,0
72348168,31415,0
72351242,31607,0
72354379,33288,0
72357479,34840,0
72360520,34136,0
72363684,31783,0
72366769,30823,0
72369873,32455,0
72372964,34472,0
72376077,34744,0
72379163,32904,0
72382289,31351,0
72385401,31671,0
72388446,33704,0
72391526,34936,0
72394699,33864,0
72397764,31655,0
72400880,31287,0
72403982,32936,0
72407739,34984,0
72410817,34344,0
72413960,32023,0
72417481,31431,0
72420790,33432,0
72423904,35464,0
72427053,35896,0
72430170,34168,0
72433275,33336,0
72436417,34504,0
72439493,36120,0
72442652,36008,0
72445782,33496,0
72448930,31479,0
72452748,32327,0
72455886,35096,0
72459047,36424,0
72462205,34904,0
72465310,32615,0
72468419,32535,0
72471483,34248,0
72474653,35304,0
72477767,34248,0
72481551,31415,0
72485351,32103,0
72488437,34152,0
72491525,35128,0
72494685,33864,0
72497806,31415,0
72500870,30967,0
72504017,32583,0
72507121,34216,0
72510224,34392,0
72513321,31991,0
72516442,30439,0
72519530,31287,0
72522708,33208,0
72525839,33320,0
72528969,31255,0
72532084,29511,0
72535200,31015,0
72538317,36280,0
72542112,43322,0
72545224,47883,0
72548338,51548,0
72551456,56541,0
72554496,63199,0
72557592,64159,0
72560723,62847,0
72563835,53965,0
72566969,41882,0
72570051,32711,0
72573194,28983,0
72576325,29175,0
72579447,30407,0
72582526,32183,0
72585043,34344,0
72588123,35960,0
72591243,35848,0
72594355,33320,0
72597445,29703,0
72600557,28342,0
72603717,30167,0
72606789,32167,0
72609908,32776,0
72613025,30199,0
72616771,28919,0
72619918,30519,0
72623000,32551,0
72626113,33224,0
72629665,30775,0
72632956,29351,0
72636053,30327,0
72639164,32327,0
72642303,33096,0
72645422,31703,0
72648500,29543,0
72651668,29719,0
72654759,31703,0
72657873,33288,0
72661020,32471,0
72664129,30087,0
72667235,29287,0
72670371,31031,0
72673459,32984,0
72677226,32792,0
72680315,30535,0
72683453,29367,0
72686521,30823,0
72689677,32984,0
72692782,33320,0
72695923,31511,0
72699051,29847,0
72702151,30359,0
72705249,32663,0
72708373,33992,0
72711466,32695,0
72714571,30567,0
72717732,30343,0
72721507,32727,0
72724597,34312,0
72727741,33752,0
72730855,31495,0
72733939,31127,0
72737077,32872,0
72740207,34888,0
72743305,35016,0
72746414,32840,0
72750218,31415,0
72753329,33048,0
72756420,35240,0
72760223,35080,0
72763343,32695,0
72766475,31415,0
72769546,32599,0
72772686,34984,0
72775806,35800,0
72778956,34424,0
72782056,32375,0
72785126,32792,0
72788244,34536,0
72791370,36040,0
72794458,35000,0
72797574,32711,0
72800717,31847,0
72803840,33080,0
72806990,34744,0
72810799,34136,0
72813914,31511,0
72817056,30183,0
72820158,31511,0
72823289,33800,0
72826413,33640,0
72829481,31543,0
72832594,29943,0
72835768,30407,0
72838868,32359,0
72842483,33464,0
72845675,31431,0
72848764,29543,0
72851888,29639,0
72855704,32327,0
72858838,33608,0
72861974,31943,0
72865084,29751,0
72868162,29591,0
72871256,31399,0
72874361,32984,0
72877464,32535,0
72880554,30263,0
72884377,29463,0
72887452,31511,0
72890556,33432,0
72894404,32695,0
72897462,30375,0
72900561,29447,0
72903673,31207,0
72906779,33016,0
72909914,33448,0
72913027,31079,0
72916145,29703,0
72919237,30679,0
72922380,32840,0
72925463,34072,0
72928557,32295,0
72931693,29959,0
72934797,29927,0
72937896,32135,0
72940985,33848,0
72944071,33272,0
72952352,30647,0
72955457,33320,0
72958563,34968,0
72961730,33688,0
72964853,31223,0
72967975,30903,0
72971088,32711,0
72974188,34536,0
72977283,33864,0
72980414,31191,0
72983483,29943,0
72986600,31415,0
72989780,33416,0
72992913,33992,0
72996012,32023,0
72999133,29815,0
73002251,30759,0
73005359,32776,0
73008466,34152,0
73011538,32968,0
73015376,30039,0
73018440,30391,0
73022244,32792,0
73025303,33960,0
73028420,32503,0
73031477,30023,0
73034562,29863,0
73037709,31767,0
73040798,33736,0
73043892,33448,0
73047006,30871,0
73050135,30135,0
73053221,31415,0
73056306,33416,0
73060057,33800,0
73063177,31399,0
73066287,29639,0
73069423,30855,0
73072458,32840,0
73075547,33816,0
73078048,32711,0
73081142,30279,0
73084262,29911,0
73087390,31863,0
73090483,33704,0
73093547,33672,0
73096699,31207,0
73099776,29895,0
73102874,30903,0
73105996,33288,0
73109102,33800,0
73112230,32151,0
73115337,30423,0
73118457,30487,0
73121531,32567,0
73125342,34376,0
73128458,32519,0
73131516,30231,0
73134671,30167,0
73137783,31735,0
73140888,33464,0
73144012,33256,0
73147776,30487,0
73150883,30135,0
73153970,31815,0
73157714,34264,0
73160798,33304,0
73163875,30839,0
73167002,29831,0
73170073,31287,0
73173195,33560,0
73176303,33752,0
73179414,31831,0
73182478,30199,0
73185577,30503,0
73188696,32776,0
73191797,34264,0
73194883,33368,0
73197959,30903,0
73201083,30775,0
73204167,32167,0
73207262,33944,0
73210378,33672,0
73213476,31639,0
73216531,30119,0
73219689,31495,0
73222762,33576,0
73225833,34328,0
73228953,32503,0
73232077,30567,0
73235167,31159,0
73238260,33128,0
73241367,34760,0
73244465,33752,0
73247522,31175,0
73250683,30359,0
73253825,32231,0
73256905,34184,0
73260680,33848,0
73263808,31319,0
73266934,30119,0
73270564,32231,0
73273717,34104,0
73276799,34376,0
73279854,31927,0
73283567,30471,0
73286693,31751,0
73289803,33928,0
73292916,34536,0
73296017,33000,0
73299075,31063,0
73302168,31591,0
73305261,33768,0
73308383,35176,0
73311465,34376,0
73314541,32247,0
73317689,32135,0
73320769,34216,0
73323867,35688,0
73326976,34648,0
73330059,31319,0
73333141,29671,0
73336216,30967,0
73339318,33512,0
73342444,34968,0
73345500,33752,0
73348607,31879,0
73351716,32007,0
73355439,33864,0
73358503,34936,0
73361624,33624,0
73364741,31175,0
73367811,31047,0
73370912,32695,0
73374029,34472,0
73377126,33928,0
73380234,31543,0
73383343,30391,0
73386482,31527,0
73389567,33976,0
73392067,35000,0
73395149,33624,0
73398238,31175,0
73401368,30999,0
73404472,32359,0
73407529,33656,0
73410688,32647,0
73413788,29879,0
73416927,29623,0
73420039,33048,0
73423135,39129,0
73426903,45563,0
73429979,49228,0
73433087,53677,0
73436193,59838,0
73439304,64159,0
73442401,64095,0
73445446,59038,0
73448529,47179,0
73451684,36296,0
73454764,30279,0
73457839,29223,0
73460952,30023,0
73464044,31303,0
73467147,33016,0
73470240,35480,0
73473372,36136,0
73476455,34936,0
73480161,30599,0
73483333,28839,0
73486446,29831,0
73490212,32599,0
73493281,32695,0
73496395,30759,0
73499468,29351,0
73502525,30375,0
73505678,32247,0
73508764,33240,0
73511841,31703,0
73514946,29799,0
73518084,29959,0
73521183,31751,0
73524260,33624,0
73528089,32727,0
73531199,30599,0
73534293,30039,0
73537413,31527,0
73540476,33512,0
73543599,33304,0
73546736,31079,0
73549834,29543,0
73552929,30679,0
73556732,33288,0
73559819,33656,0
73562912,31783,0
73566021,29959,0
73569092,30983,0
73572186,33096,0
73575264,34776,0
73578382,33160,0
73581449,30935,0
73584556,30343,0
73587718,32423,0
73590802,34648,0
73593898,34088,0
73597003,32023,0
73600095,30903,0
73603155,32455,0
73606247,34376,0
73609362,35336,0
73612466,33080,0
73615510,31319,0
73618675,31575,0
73622434,34408,0
73625484,35432,0
73628569,34488,0
73631696,31991,0
73634803,32087,0
73637889,34216,0
73641017,36024,0
73644116,35832,0
73647196,33224,0
73650343,32135,0
73653457,33688,0
73656559,35720,0
73659715,36424,0
73662793,34648,0
73665897,32872,0
73669017,33368,0
73672102,35464,0
73675179,36664,0
73678269,35160,0
73681383,32455,0
73684465,31751,0
73687491,33352,0
73690559,34744,0
73693706,34472,0
73696794,32151,0
73700562,30359,0
73703582,31367,0
73706711,33240,0
73709796,33704,0
73712886,31271,0
73715981,29639,0
73719099,29959,0
73722204,32279,0
73725305,33224,0
73728424,32007,0
73731464,29511,0
73734556,29431,0
73737696,31175,0
73740798,32984,0
73743902,32679,0
73747006,30343,0
73750081,29399,0
73753161,30343,0
73756973,33144,0
73760038,33064,0
73763131,30887,0
73766206,29047,0
73769280,30087,0
73772428,32183,0
73775486,33528,0
73778660,32087,0
73781745,29735,0
73784845,29863,0
73787935,31879,0
73791046,33928,0
73794175,33080,0
73797271,30759,0
73800405,29511,0
73804155,31319,0
73807253,33560,0
73810344,33368,0
73813456,30951,0
73816479,29847,0
73819576,30855,0
73822727,33032,0
73826456,33944,0
73829586,32007,0
73832722,30119,0
73835825,30999,0
73838906,33128,0
73842013,34088,0
73845092,32792,0
73848193,30647,0
73851284,30567,0
73854412,32535,0
73857474,34728,0
73860592,34776,0
73863752,32311,0
73866892,31271,0
73869995,32231,0
73873125,34440,0
73876216,34792,0
73879297,32952,0
73882424,30887,0
73885473,31335,0
73888564,33224,0
73892388,34280,0
73895484,33000,0
73898540,30663,0
73902332,31031,0
73905486,33288,0
73908510,34504,0
73911627,33528,0
73914761,30823,0
73917860,30343,0
73920927,32103,0
73924068,34104,0
73927159,34136,0
73930258,31591,0
73933356,30327,0
73937181,32183,0
73940275,33960,0
73943378,34120,0
73946477,31991,0
73949517,30279,0
73952628,30967,0
73955760,33320,0
73959523,33880,0
73962581,32263,0
73965727,30295,0
73968822,30919,0
73971935,33128,0
73975693,34456,0
73978786,32792,0
73981874,30567,0
73984995,30583,0
73988081,32776,0
73991180,34504,0
73994273,33992,0
73997405,31431,0
74000456,30599,0
74003581,32135,0
74006743,34184,0
74009834,34568,0
74012961,32263,0
74016050,30775,0
74019152,31303,0
74022250,33528,0
74025340,34712,0
74028456,33304,0
74031493,31191,0
74034595,31015,0
74037738,32679,0
74040830,34616,0
74043926,34136,0
74047025,31783,0
74050113,30903,0
74053205,32039,0
74056307,33800,0
74059421,34728,0
74062449,33160,0
74065560,31047,0
74068684,31175,0
74071794,33288,0
74074874,35160,0
74077981,33880,0
74081066,31479,0
74084177,30999,0
74087254,32615,0
74090367,34584,0
74094157,34360,0
74097256,31975,0
74100373,30887,0
74103478,32247,0
74106501,34824,0
74110353,34760,0
74114123,31911,0
74117238,30711,0
74120349,32439,0
74123461,34488,0
74126498,34888,0
74129667,32888,0
74132774,30935,0
74135872,31751,0
74138959,34120,0
74142049,35240,0
74145138,34200,0
74148214,32215,0
74151293,31799,0
74154418,33896,0
74157461,35544,0
74160550,35512,0
74163704,33224,0
74167462,32455,0
74170497,33464,0
74173592,34920,0
74176768,34216,0
74179861,31639,0
74182969,30279,0
74186098,31047,0
74189175,33624,0
74192266,35160,0
74200544,31783,0
74203631,33816,0
74206764,35960,0
74209863,35816,0
74212995,33560,0
74216098,31511,0
74219183,31943,0
74222973,34472,0
74226072,34824,0
74229163,33208,0
74232262,31095,0
74235403,31367,0
74239219,33720,0
74242313,34840,0
74245427,33560,0
74248484,31079,0
74251593,30967,0
74254767,32647,0
74257865,33624,0
74260972,32551,0
74264071,30023,0
74267145,29767,0
74270240,33560,0
74273363,39353,0
74276481,45131,0
74279528,49212,0
74282675,53325,0
74285770,59342,0
74288830,64207,0
74291921,63983,0
74295700,58222,0
74298771,46155,0
74301885,35496,0
74304987,30087,0
74308066,29415,0
74311164,30455,0
74314256,31719,0
74317382,33368,0
74320478,35304,0
74323528,36248,0
74326713,35112,0
74330464,30663,0
74333565,29031,0
74336725,30391,0
74340510,32776,0
74343560,33112,0
74346670,30567,0
74349768,28871,0
74352846,29639,0
74355967,31943,0
74359058,32968,0
74362125,31351,0
74365207,29159,0
74368300,29415,0
74371420,31271,0
74374461,33080,0
74377557,32503,0
74380707,30071,0
74383801,29111,0
74386889,30647,0
74389986,32711,0
74393079,33352,0
74396183,31239,0
74399273,29303,0
74402400,29943,0
74405482,32103,0
74408558,33464,0
74411678,32279,0
74414749,29943,0
74417840,29543,0
74420925,31191,0
74424005,33192,0
74427077,33192,0
74430848,30615,0
74433962,29591,0
74437048,31175,0
74440132,33288,0
74443212,33976,0
74446275,31895,0
74449390,30295,0
74452477,31143,0
74455529,33592,0
74458699,34824,0
74461789,33752,0
74464878,31623,0
74467979,31287,0
74471066,33144,0
74474140,35160,0
74477250,34840,0
74480359,32599,0
74483466,31335,0
74486525,32695,0
74489681,34984,0
74492786,35720,0
74495882,34184,0
74499595,32071,0
74502754,32920,0
74505828,35240,0
74508932,36488,0
74512046,35368,0
74515140,32727,0
74518217,32679,0
74521336,34648,0
74524464,36008,0
74527525,35576,0
74530673,32583,0
74533809,31207,0
74536899,32311,0
74540492,34280,0
74543674,33880,0
74546762,31415,0
74549868,29431,0
74552962,30487,0
74556047,32487,0
74559155,33176,0
74562243,31255,0
74566053,28566,0
74569112,29127,0
74572225,31495,0
74575304,32984,0
74578433,31511,0
74581482,29271,0
74584591,28823,0
74587764,30679,0
74590851,32599,0
74593970,32279,0
74597037,29799,0
74600124,28743,0
74603211,29639,0
74606329,31847,0
74609440,32359,0
74612520,30807,0
74615024,29239,0
74618118,28887,0
74621212,30855,0
74624303,32455,0
74627404,32135,0
74630489,29655,0
74634276,28823,0
74637380,30791,0
74640479,32615,0
74643508,32856,0
74646026,31287,0
74649125,29271,0
74652219,29335,0
74655321,31495,0
74658432,33176,0
74661462,31991,0
74664553,29623,0
74667712,29047,0
74670805,31047,0
74673904,33016,0
74676996,32920,0
74680092,30583,0
74683197,29095,0
74686262,30231,0
74689377,32343,0
74692480,33560,0
74695504,31767,0
74699358,29527,0
74702460,30439,0
74705496,32327,0
74708559,33928,0
74711699,32808,0
74714757,30375,0
74717867,29735,0
74721004,31399,0
74724097,33544,0
74727209,33368,0
74730305,30935,0
74733422,29527,0
74736468,30727,0
74739568,32711,0
74742730,33688,0
74745810,31879,0
74749968,29431,0
74753259,30663,0
74756385,32824,0
74759483,33432,0
74762541,31911,0
74765050,30135,0
74768132,29911,0
74771193,31639,0
74774287,33480,0
74777429,33288,0
74781185,30199,0
74784257,29303,0
74787361,30903,0
74790497,33048,0
74793554,33144,0
74796713,31111,0
74799816,29399,0
74802923,30359,0
74805998,32375,0
74809089,33496,0
74812182,32215,0
74815249,29879,0
74818359,30023,0
74821460,31879,0
74824505,33608,0
74827673,32920,0
74830761,30487,0
74833883,29559,0
74836972,30839,0
74840065,32984,0
74843144,33672,0
74846249,31735,0
74849351,29735,0
74852486,30311,0
74855535,32519,0
74858702,33816,0
74861799,32567,0
74864890,30039,0
74868005,29767,0
74871091,31575,0
74874184,33592,0
74877264,33320,0
74880356,31079,0
74884166,29751,0
74887234,31271,0
74890302,33160,0
74893440,33496,0
74896495,31351,0
74900327,29751,0
74903400,31207,0
74906478,33304,0
74909590,33736,0
74912754,31735,0
74915850,29671,0
74918943,30455,0
74922057,32455,0
74925151,33784,0
74928239,32920,0
74931357,30583,0
74934472,29991,0
74937513,31607,0
74940621,33688,0
74943756,33544,0
74946844,31399,0
74949944,29879,0
74953039,30871,0
74956149,33256,0
74959707,33992,0
74962960,32279,0
74966031,30311,0
74969113,31303,0
74972905,34232,0
74975993,34632,0
74979079,33000,0
74982170,31079,0
74985284,31559,0
74988423,33688,0
74991489,35080,0
74994614,34232,0
74997783,31927,0
75000885,31335,0
75003971,33384,0
75007051,35112,0
75010125,34696,0
75013209,32119,0
75016289,29959,0
75020109,31127,0
75023230,33368,0
75026324,34216,0
75029428,32872,0
75032487,31447,0
75036282,32776,0
75039404,34840,0
75042488,35656,0
75045541,33960,0
75048697,31511,0
75051802,31303,0
75055574,33352,0
75058680,34664,0
75061780,33464,0
75064881,30983,0
75067963,30519,0
75071055,32247,0
75074170,34040,0
75077270,33992,0
75080394,31559,0
75083478,30359,0
75086536,31703,0
75089688,33656,0
75092758,34008,0
75095833,31703,0
75098938,28967,0
75102024,29447,0
75105108,33080,0
75108178,37401,0
75111257,40905,0
75114372,44346,0
75117482,49772,0
75120519,56781,0
75123602,63903,0
75126756,64031,0
75129844,62111,0
75132941,53837,0
75136041,43610,0
75139124,35720,0
75142221,30519,0
75145291,28310,0
75148404,28679,0
75152161,32647,0
75155270,36632,0
75158407,37449,0
75161488,35000,0
75164520,30887,0
75167690,29047,0
75171389,30583,0
75174463,32247,0
75177582,32391,0
75180718,30407,0
75183806,29335,0
75186902,30615,0
75190713,33000,0
75193813,32615,0
75196916,30503,0
75200010,29063,0
75203123,30023,0
75206225,32487,0
75209299,33640,0
75212433,32023,0
75215486,29847,0
75218581,30071,0
75221730,32279,0
75224805,34040,0
75227909,33256,0
75231022,30615,0
75234113,29831,0
75237237,31463,0
75240327,33352,0
75243459,33624,0
75247244,30839,0
75250366,29767,0
75253482,31159,0
75256557,33672,0
75259696,34184,0
75262804,32215,0
75265904,30455,0
75269005,31079,0
75272096,33352,0
75275189,34616,0
75278231,33512,0
75281366,31367,0
75284474,31127,0
75288235,33320,0
75291308,35128,0
75294425,34568,0
75297473,32423,0
75300549,31383,0
75303706,32904,0
75306767,35160,0
75310517,35624,0
75313695,33544,0
75316819,32071,0
75319924,33320,0
75323051,35480,0
75326131,36312,0
75329199,34696,0
75332302,32615,0
75335443,32808,0
75338495,35112,0
75341594,37081,0
75344734,36056,0
75347829,33512,0
75350936,32583,0
75354036,34360,0
75357122,36584,0
75360204,36408,0
75363299,34136,0
75366418,32103,0
75369492,32567,0
75372585,34536,0
75375732,35240,0
75378837,33432,0
75381884,31303,0
75385058,30887,0
75388140,32487,0
75391246,34184,0
75394358,33656,0
75397457,31015,0
75400506,29559,0
75403672,30839,0
75406811,32583,0
75409905,33016,0
75413008,31255,0
75416098,29079,0
75419202,29719,0
75423001,32055,0
75426100,32968,0
75429179,31095,0
75432249,28775,0
75435351,28855,0
75438441,30919,0
75448118,29847,0
75451225,29639,0
75454292,31719,0
75457407,33448,0
75461242,32904,0
75464380,29751,0
75467463,28502,0
75470590,30087,0
75473731,31687,0
75476810,32391,0
75479919,30503,0
75483032,28839,0
75486112,29767,0
75489190,31991,0
75492259,33112,0
75495382,31639,0
75498496,29207,0
75501534,29191,0
75504644,31063,0
75507763,33016,0
75511489,32263,0
75514576,30119,0
75517730,29415,0
75520797,31239,0
75523875,33496,0
75526988,33544,0
75530089,31303,0
75533201,29511,0
75536341,30455,0
75539462,32519,0
75542523,33816,0
75545679,32071,0
75549421,29591,0
75552489,30423,0
75555587,32279,0
75558738,33880,0
75561836,32872,0
75564965,30263,0
75568038,29703,0
75571102,31783,0
75574209,34024,0
75578019,33368,0
75581098,30823,0
75584167,29767,0
75587276,31383,0
75590391,33592,0
75593476,33848,0
75596505,31831,0
75600270,29863,0
75603418,31143,0
75606466,33192,0
75609559,33784,0
75612711,31847,0
75615827,29991,0
75618991,30471,0
75622086,32407,0
75625171,33976,0
75628252,33240,0
75631344,31031,0
75634439,30215,0
75637511,31543,0
75640609,33256,0
75643731,33672,0
75646829,31415,0
75649910,29687,0
75653053,30791,0
75656142,32952,0
75659214,34056,0
75662287,32695,0
75665425,30183,0
75668490,30311,0
75671535,32151,0
75674684,34008,0
75677783,33512,0
75680863,31447,0
75684677,30439,0
75687755,32407,0
75690875,33992,0
75693954,33752,0
75697045,31543,0
75700137,30407,0
75703214,31383,0
75706295,33672,0
75709407,34776,0
75713180,32167,0
75716267,30247,0
75719378,31031,0
75722462,33272,0
75725571,34920,0
75728739,33400,0
75731812,31191,0
75735586,31047,0
75738728,32872,0
75741847,34056,0
75744927,33304,0
75748030,30823,0
75751152,30183,0
75754259,31703,0
75757373,33928,0
75760505,34024,0
75763533,31847,0
75766623,30471,0
75769790,31479,0
75772864,33672,0
75775949,34728,0
75779050,32952,0
75782140,30647,0
75785944,31047,0
75789046,33288,0
75792144,34440,0
75795239,33336,0
75798367,30615,0
75801484,30439,0
75804549,32503,0
75807695,34552,0
75811448,33688,0
75814529,31191,0
75817050,30487,0
75820142,31639,0
75823256,34136,0
75826363,34664,0
75829468,33128,0
75832524,30967,0
75835645,31703,0
75838765,33592,0
75841861,34904,0
75844965,34040,0
75848771,31623,0
75851870,31863,0
75854969,34248,0
75858084,35784,0
75861173,34696,0
75864288,31783,0
75868090,30263,0
75871191,31495,0
75874312,33496,0
75877426,33208,0
75880494,31623,0
75883610,30903,0
75886774,32439,0
75889864,34840,0
75892961,35288,0
75896049,33576,0
75899138,31127,0
75902221,31415,0
75905351,33192,0
75908491,34664,0
75911531,33880,0
75914682,31239,0
75917781,30455,0
75920872,32327,0
75923959,34440,0
75927050,34136,0
75930178,31655,0
75933257,30023,0
75936379,31063,0
75939471,33752,0
75942550,34424,0
75945702,32167,0
75948817,29271,0
75952604,29575,0
75955694,32599,0
75958768,36008,0
75961876,38441,0
75964970,40745,0
75968105,46283,0
75971201,54173,0
75974290,61855,0
75977387,64175,0
75981187,62015,0
75984292,55357,0
75987404,46699,0
75990482,38697,0
75993558,31639,0
75996725,27190,0
75999799,27606,0
76003528,32695,0
76006609,37145,0
76009745,37801,0
76012858,34568,0
76015956,31095,0
76019070,30311,0
76022807,32183,0
76025923,33128,0
76029068,31831,0
76032145,29479,0
76035258,29575,0
76038355,31655,0
76041472,33416,0
76044504,32519,0
76047608,29959,0
76050760,28903,0
76053888,30807,0
76056990,32727,0
76060767,33000,0
76063839,30743,0
76067006,29543,0
76070073,31191,0
76073188,33128,0
76076279,34200,0
76079399,32183,0
76082495,30039,0
76085542,30503,0
76088701,32615,0
76091802,34616,0
76094905,33880,0
76098020,31543,0
76101105,30983,0
76104192,33000,0
76107292,35080,0
76110427,35272,0
76113501,32567,0
76117280,30503,0
76120424,31847,0
76123480,33848,0
76126590,34280,0
76129736,32311,0
76132826,30631,0
76136600,32055,0
76139746,34504,0
76142841,35192,0
76145939,33432,0
76149040,31047,0
76152121,31415,0
76155236,33448,0
76158324,35096,0
76161447,34408,0
76164509,32359,0
76167611,31815,0
76170760,33320,0
76173831,35480,0
76176896,35928,0
76180047,34248,0
76183149,32439,0
76186290,33464,0
76189420,35496,0
76193203,36376,0
76196292,34568,0
76199374,32904,0
76202504,33336,0
76205576,35624,0
76208751,36744,0
76211850,35432,0
76214943,33032,0
76218045,32135,0
76221146,33512,0
76224229,35000,0
76227298,34840,0
76230402,32087,0
76234107,30071,0
76237207,31431,0
76240284,33544,0
76243391,33560,0
76246492,31415,0
76250270,29367,0
76253368,30551,0
76256491,32856,0
76259547,33304,0
76262720,31671,0
76265802,29239,0
76268885,29527,0
76272613,32039,0
76275779,33192,0
76278858,31543,0
76281923,29255,0
76285037,29223,0
76288121,30759,0
76291197,32583,0
76294279,32487,0
76297426,29927,0
76300477,28727,0
76303560,29927,0
76306699,32103,0
76309786,32840,0
76312881,31127,0
76315972,29223,0
76319080,29831,0
76322160,31831,0
76325225,33336,0
76329024,31831,0
76332113,29127,0
76335205,29415,0
76338328,31239,0
76341445,33160,0
76344488,32631,0
76347599,30119,0
76350783,29015,0
76353858,30375,0
76356973,32776,0
76360056,33368,0
76363154,31575,0
76366231,29543,0
76369316,30007,0
76372441,32167,0
76375490,33640,0
76378604,32247,0
76381744,29815,0
76385506,29815,0
76388546,32007,0
76391715,33656,0
76394816,32727,0
76397899,30135,0
76401018,29463,0
76404110,30871,0
76407191,32984,0
76410271,33192,0
76413383,31191,0
76416509,29335,0
76419557,30295,0
76422679,32343,0
76425793,33624,0
76428871,32135,0
76431966,29655,0
76435061,29671,0
76438153,31591,0
76441249,33592,0
76444980,32840,0
76448078,30231,0
76451181,29575,0
76454325,31303,0
76457453,33352,0
76460513,33224,0
76464369,30711,0
76467482,29271,0
76470521,30695,0
76473635,32727,0
76476749,33544,0
76479833,31031,0
76482929,29303,0
76486056,29879,0
76489133,32407,0
76492209,33432,0
76495282,32407,0
76498390,29831,0
76502174,29895,0
76505248,32119,0
76508318,33368,0
76511408,32711,0
76514482,30503,0
76518275,29847,0
76521379,31623,0
76524472,33848,0
76527555,33576,0
76530707,31479,0
76533839,30135,0
76536938,31255,0
76540042,33240,0
76543149,33688,0
76546911,31175,0
76550002,29719,0
76553071,30551,0
76556175,33032,0
76559256,34440,0
76562361,32647,0
76565470,30151,0
76568495,30247,0
76571582,32135,0
76574746,33576,0
76577824,33176,0
76580926,30631,0
76584032,29703,0
76587141,31239,0
76590260,33464,0
76593405,33880,0
76596471,31815,0
76599592,29863,0
76602725,30647,0
76605816,32535,0
76608908,33864,0
76612005,32663,0
76615110,30535,0
76618179,29927,0
76621267,32087,0
76624398,34056,0
76627468,34120,0
76630571,31527,0
76633721,29911,0
76637506,31719,0
76640535,33944,0
76643688,34056,0
76646772,31639,0
76649884,29959,0
76652982,30727,0
76656746,33336,0
76659841,34440,0
76662950,32487,0
76666059,30215,0
76669151,30935,0
76672242,32936,0
76675346,34376,0
76678488,33624,0
76682264,31271,0
76685403,31287,0
76688471,33224,0
76696781,32936,0
76699880,31767,0
76703015,33016,0
76706103,34872,0
76709255,35320,0
76712386,33016,0
76715474,29783,0
76718600,29367,0
76721752,31655,0
76724861,33928,0
76727978,33800,0
76731770,31351,0
76734854,31079,0
76737945,33096,0
76741079,35064,0
76744165,34248,0
76747261,31351,0
76750393,30167,0
76753508,31383,0
76756579,33448,0
76759761,33960,0
76762887,31927,0
76766629,29895,0
76769755,30679,0
76772862,33128,0
76775968,34392,0
76779051,32808,0
76782143,30279,0
76785252,30215,0
76789072,32968,0
76792162,33976,0
76795242,31751,0
76798348,28999,0
76801450,28967,0
76804494,32295,0
76807563,37033,0
76810726,41370,0
76813807,44826,0
76816933,49628,0
76820024,56557,0
76823124,63807,0
76826214,64223,0
76829313,61791,0
76832438,52604,0
76835506,42010,0
76838587,34360,0
76841750,30487,0
76844840,29079,0
76847982,29255,0
76851056,31527,0
76854150,35192,0
76857258,37305,0
76860366,36392,0
76863504,32551,0
76867277,29271,0
76870395,30087,0
76874124,32727,0
76877251,32920,0
76880354,30679,0
76883458,29207,0
76886504,30007,0
76889606,32071,0
76892737,33064,0
76895829,31495,0
76899607,28887,0
76902710,29127,0
76905803,31655,0
76908907,33432,0
76912019,32407,0
76915128,30087,0
76918200,29671,0
76921960,32231,0
76925056,33784,0
76928171,33064,0
76931237,30695,0
76934311,30007,0
76937414,31383,0
76940485,33688,0
76943577,33720,0
76946742,31751,0
76950508,29735,0
76953561,30727,0
76956692,33240,0
76959801,33864,0
76962888,32407,0
76965979,30007,0
76969064,30471,0
76972111,32599,0
76975223,34648,0
76978318,33720,0
76981426,31383,0
76984492,30935,0
76987594,32888,0
76990745,34968,0
76993828,34856,0
76996904,33000,0
77000005,31575,0
77003124,32311,0
77006220,34568,0
77009299,35720,0
77012421,34424,0
77015474,32279,0
77018579,32023,0
77021723,34248,0
77024814,36440,0
77027876,35896,0
77030990,33592,0
77034112,32471,0
77037204,34040,0
77040284,36024,0
77043392,36728,0
77046506,34872,0
77049556,33144,0
77052692,34120,0
77056447,36296,0
77059495,37001,0
77062605,35112,0
77065757,32279,0
77068840,32071,0
77071916,33848,0
77075015,34824,0
77078079,34312,0
77081151,31575,0
77084187,30263,0
77087278,31383,0
77090429,33448,0
77093492,33704,0
77096597,31223,0
77099736,29415,0
77102828,30135,0
77105923,32247,0
77109013,33176,0
77112108,31895,0
77115211,29815,0
77118292,29287,0
77121412,31431,0
77124472,33160,0
77127564,32856,0
77130728,30279,0
77133798,28791,0
77136873,29895,0
77140621,32583,0
77143775,33048,0
77146854,30631,0
77149961,28759,0
77153040,29527,0
77156140,32087,0
77159226,33112,0
77162326,31719,0
77165469,29719,0
77168524,29639,0
77171620,31639,0
77175482,33336,0
77178527,32167,0
77181613,29687,0
77184795,29415,0
77187887,31639,0
77191634,34120,0
77194774,33320,0
77197862,30711,0
77200969,29959,0
77204104,31335,0
77207197,33560,0
77210270,33992,0
77213374,31703,0
77216488,29863,0
77219501,30647,0
77222576,32792,0
77225750,34184,0
77228863,33000,0
77231947,30679,0
77235043,30487,0
77238118,32343,0
77241196,34488,0
77244288,34104,0
77247419,31671,0
77250490,30343,0
77253516,31447,0
77256617,34056,0
77259757,34648,0
77262836,32519,0
77265920,30215,0
77269046,30439,0
77272153,32888,0
77275916,34248,0
77279058,33064,0
77282154,30535,0
77285276,30407,0
77288384,32567,0
77291482,34008,0
77295223,33208,0
77298373,30807,0
77301491,30695,0
77304560,32087,0
77308371,34440,0
77311449,33480,0
77314535,31031,0
77317691,30311,0
77320799,31543,0
77324567,33960,0
77327603,33720,0
77330774,31495,0
77333852,30151,0
77336981,30983,0
77340114,33416,0
77343211,33528,0
77346307,31719,0
77349411,30279,0
77352506,30535,0
77355557,31975,0
77359402,33480,0
77362491,31831,0
77365548,29911,0
77368714,29927,0
77371819,31943,0
77374906,33464,0
77377997,33144,0
77381070,30647,0
77384153,29671,0
77387240,30759,0
77390330,33416,0
77393448,33768,0
77396494,31911,0
77399574,29879,0
77402749,30439,0
77405822,32711,0
77408923,34248,0
77412044,33208,0
77415132,30743,0
77418229,30279,0
77421284,31815,0
77424392,34072,0
77427515,34024,0
77430543,31671,0
77433693,30183,0
77436767,31047,0
77439905,33448,0
77443010,34328,0
77446105,32519,0
77449196,30231,0
77452281,30359,0
77455374,32792,0
77459179,34440,0
77462291,33000,0
77465382,30535,0
77468502,30327,0
77471631,32599,0
77474768,34632,0
77477860,34008,0
77480979,31687,0
77484067,30487,0
77487149,32023,0
77490246,34104,0
77494013,34488,0
77497097,32167,0
77500176,30471,0
77503253,31399,0
77506995,34024,0
77510097,34504,0
77513200,32727,0
77516266,30871,0
77519377,31447,0
77522489,33624,0
77525556,35272,0
77528705,34408,0
77531763,31911,0
77534858,31543,0
77537971,33592,0
77541071,35272,0
77544155,34216,0
77547266,31255,0
77551085,29687,0
77554182,31575,0
77557266,34216,0
77560384,34824,0
77563506,32872,0
77566552,31223,0
77569691,31847,0
77572784,34024,0
77575860,35144,0
77578985,33736,0
77582763,30775,0
77585865,31095,0
77588948,33128,0
77592022,34664,0
77595109,33624,0
77598191,31639,0
77601334,31127,0
77604455,32695,0
77607487,34856,0
77610566,35224,0
77613705,33080,0
77616808,31623,0
77619978,32455,0
77623063,34392,0
77626819,34152,0
77629892,31719,0
77632985,30343,0
77636084,32551,0
77639172,37593,0
77642245,43338,0
77645315,47995,0
77648414,51836,0
77651503,57229,0
77654544,63679,0
77657635,64399,0
77660774,64079,0
77663877,56253,0
77667021,44170,0
77670122,35432,0
77673195,31223,0
77676285,31255,0
77679411,32103,0
77683186,33352,0
77686314,35800,0
77689403,37609,0
77692491,37321,0
77695537,34552,0
77698614,30743,0
77701757,30071,0
77704853,32231,0
77707939,34536,0
77711046,34200,0
77714101,31879,0
77717797,30551,0
77720905,32263,0
77724007,34264,0
77727132,34648,0
77730232,32776,0
77734002,30967,0
77737110,32183,0
77740211,34360,0
77743309,35240,0
77746410,33336,0
77749501,31223,0
77752553,31591,0
77755701,33768,0
77758798,35688,0
77761891,34584,0
77764997,32167,0
77768083,31223,0
77771153,33368,0
77774230,35272,0
77777358,35384,0
77780464,32984,0
77783547,31559,0
77786696,32872,0
77789826,34856,0
77792939,35736,0
77796054,34104,0
77799174,31783,0
77802272,32087,0
77805385,34568,0
77808510,36184,0
77811570,35464,0
77814742,33016,0
77818502,32279,0
77821529,34184,0
77824642,36184,0
77827786,36168,0
77830855,33832,0
77833920,32904,0
77837021,34280,0
77840104,36728,0
77843170,37609,0
77846248,35848,0
77849342,34168,0
77852454,34360,0
77855486,36776,0
77859312,38425,0
77862426,36937,0
77865519,34664,0
77869320,34856,0
77872414,37145,0
77875487,38697,0
77878608,37833,0
77881726,35064,0
77884829,34472,0
77887902,36360,0
77891019,37945,0
77894113,37609,0
77897206,35048,0
77900983,33176,0
77904070,34152,0
77907192,35736,0
