55530202,25041
55536567,25062
55548552,25254
55554725,25263
55560950,25265
55567133,25270
55572565,25276
55578757,25281
55584957,25288
55591158,25296
55597373,25303
55603601,25304
55608819,25308
55615028,25313
55621218,25323
55627422,25322
55633625,25330
55639812,25330
55646663,25331
55652941,25325
55659181,25328
55665385,25320
55671574,25315
55683202,24020
55689415,24087
55695634,24155
55701772,24227
55706957,24306
55713159,24378
55719327,24450
55725539,24514
55731751,24580
55737958,24646
55743364,24708
55749615,24767
55755811,24822
55761969,24837
55768226,24870
55774436,24878
55779654,24897
55785865,24911
55792076,24921
55798292,24927
55804511,24937
55816105,25259
55822290,25265
55828473,25270
55834670,25273
55840874,25278
55846418,25284
55852623,25288
55859483,25289
55865684,25294
55871877,25298
55878075,25300
55884240,25306
55890412,25312
55896623,25316
55902771,25317
55908960,25322
55914217,25321
55920368,25329
55926598,25331
55932788,25331
55938997,25336
55950591,25377
55956793,25372
55962964,25378
55969151,25381
55975390,25375
55980619,25376
55986831,25384
55993061,25382
55999257,25382
56005397,25384
56011579,25385
56017724,25390
56023989,25390
56030126,25396
56036327,25397
56042504,25395
56048692,25397
56054870,25399
56061064,25395
56067893,25398
56074097,25403
56085753,25487
56091975,25502
56098213,25498
56104376,25496
56110567,25505
56116792,25509
56123016,25510
56129222,25521
56135414,25523
56141632,25527
56147798,25534
56153018,25533
56159193,25540
56165401,25540
56171586,25548
56177738,25546
56183945,25549
56189372,25558
56195607,25559
56201796,25564
56207980,25575
56219419,25707
56225614,25704
56231802,25713
56238028,25718
56244193,25718
56249697,25720
56255889,25721
56262091,25726
56268286,25732
56274510,25742
56281334,25739
56286538,25742
56292723,25748
56298948,25753
56305147,25759
56311382,25757
56317598,25763
56323019,25771
56329215,25769
56335397,25775
56341609,25778
56347807,25785
56353978,25929
56360175,25936
56366336,25938
56372579,25941
56378775,25938
56384023,25940
56390213,25942
56396376,25948
56402529,25949
56408686,25944
56414861,25952
56421061,25951
56427257,25955
56433469,25954
56439623,25961
56445823,25963
56452014,25970
56457490,25971
56463681,25971
56469884,25974
56476064,25972
56482263,25983
56494621,25698
56500873,25664
56507092,25624
56513289,25576
56518481,25526
56524719,25450
56530936,25375
56537160,25291
56543351,25215
56549586,25113
56555759,24963
56561190,24779
56567413,24596
56573604,24411
56579797,24229
56585971,24054
56592176,23841
56598375,23594
56604645,23334
56610856,23026
56617014,22676
56628368,21247
56634603,21319
56640764,21411
56646982,21504
56652408,21594
56658641,21702
56664826,21805
56670958,21934
56677127,22037
56683291,22137
56689502,22233
56694712,22308
56701438,22374
56714490,22427
56720768,22465
56726996,22502
56733212,22539
56739373,22571
56745599,22596
56757041,22813
56763215,22831
56769391,22841
56775597,22853
56781059,22855
56787286,22862
56793556,22868
56799732,22869
56805975,22877
56812126,22878
56818339,22872
56824572,22879
56830741,22887
56836919,22890
56843084,22893
56849311,22894
56855530,22901
56861758,22899
56866937,22903
56873124,22905
56879318,22909
56885503,22907
56891735,23287
56897939,23301
56904172,23315
56910382,23332
56915801,23338
56922677,23359
56928879,23365
56935077,23370
56941259,23381
56947412,23386
56953635,23405
56959809,23409
56965020,23423
56971171,23422
56977353,23443
56983562,23454
56989730,23458
56995944,23464
57001435,23486
57007658,23491
57013866,23500
57020040,23509
57031427,23791
57037645,23796
57043845,23799
57050103,23801
57056287,23813
57062531,23818
57068690,23821
57074853,23828
57081043,23832
57087240,23846
57093465,23848
57098911,23856
57105117,23862
57111320,23866
57117527,23869
57123707,23879
57130551,23887
57135756,23898
57141992,23899
57148167,23907
57154353,23907
57165977,24124
57172148,24121
57178363,24126
57184629,24135
57189853,24139
57196072,24141
57202275,24145
57208432,24155
57214610,24161
57220806,24163
57227055,24165
57233272,23996
57239475,24169
57245615,24175
57251798,24178
57258039,24186
57264218,24193
57269671,24191
57275877,24188
57281995,24195
57288179,24196
57299594,24203
57305811,24195
57312039,24196
57318267,24197
57324481,24194
57330675,24194
57336913,24196
57343733,24193
57349931,24193
57356162,24191
57362370,24191
57368532,24188
57373967,24187
57380196,24181
57386389,24175
57392614,24177
57398818,24233
57404023,24173
57410212,24172
57416411,24172
57422650,24174
57434274,24175
57440455,24182
57446654,24182
57452864,24180
57459036,24181
57464311,24195
57470539,24203
57476714,24195
57482871,24197
57489051,24203
57495217,24205
57501392,24210
57507585,24215
57513782,24211
57520002,24220
57526206,24226
57532407,24227
57538605,24233
57544764,24235
57551563,24236
57557748,24253
57569353,24411
57575577,24425
57581746,24430
57587964,24441
57594215,24447
57599765,24457
57605948,24456
57612110,24471
57618294,24474
57624503,24483
57630694,24487
57636868,24497
57643065,24505
57648303,24512
57654495,24514
57660712,24521
57666943,24523
57673125,24531
57678579,24534
57684780,24548
57690942,24555
57697180,24555
57703347,24766
57709536,24775
57715724,24764
57721924,24775
57728138,24785
57733372,24786
57739580,24788
57745722,24802
57751867,24808
57758070,24808
57764898,24807
57771112,24818
57777302,24811
57782724,24817
57788913,24823
57795068,24829
57801299,24829
57807453,24834
57812665,24833
57818879,24844
57825109,24848
57831336,24845
57837521,25006
57843728,25016
57849929,25010
57856149,25016
57862350,25011
57867816,25021
57874025,25018
57880191,25020
57886393,25026
57892609,25027
57898798,25030
57904978,25033
57911170,25038
57916422,25044
57922616,25040
57928816,25047
57935056,25047
57941237,25047
57947432,25045
57960442,25055
57971905,25109
57978755,25113
57985027,25118
57991261,25114
57997438,25115
58003670,25113
58009872,25113
58016072,25115
58022285,25110
58028538,25111
58034741,25105
58040954,25104
58046391,25108
58052601,25105
58058800,25103
58064966,25099
58071145,25094
58077344,25080
58082570,25077
58088740,25081
58094934,25070
58106597,24953
58112780,24957
58118969,24952
58125199,24953
58131376,24949
58136595,24946
58142768,24943
58148934,24948
58155125,24947
58161314,24944
58167462,24938
58173652,24930
58179831,24937
58186057,24935
58192966,24933
58199180,24933
58205380,24933
58211563,24934
58216978,24933
58223157,24932
58229377,24932
58240818,24904
58247027,24904
58253214,24897
58259394,24902
58265562,24895
58271008,24896
58277198,24895
58283425,24901
58289657,24898
58295900,24885
58302087,24893
58308265,24893
58314430,24897
58319656,24891
58325861,24891
58332068,24884
58338293,24887
58344470,24893
58350692,24883
58356858,24873
58363064,24878
58374728,24861
58380929,24859
58387117,24852
58393305,24860
58399518,24855
58406393,24856
58412621,24855
58418811,24855
58424999,24858
58431194,24856
58437352,24853
58443560,24857
58449779,24855
58454999,24861
58461198,24857
58467395,24864
58473566,24863
58479751,24864
58485887,24864
58491325,24862
58497573,24864
58508974,24867
58515135,24873
58521347,24867
58527522,24868
58533681,24862
58539887,24874
58546059,24871
58552229,24874
58558415,24866
58564629,24867
58570809,24864
58577009,24870
58583224,24866
58588668,24872
58594904,24874
58601121,24871
58607319,24866
58614115,24863
58620327,24869
58625497,24872
58631709,24869
58637874,24866
58644089,24878
58650318,24883
58656521,24872
58662720,24873
58668927,24876
58675140,24880
58680620,24881
58686823,24879
58693012,24875
58699183,24878
58705396,24876
58711625,24873
58717858,24879
58723095,24872
58729306,24876
58735479,24869
58741704,24867
58747950,24863
58754149,24865
58759603,24865
58765799,24859
58771958,24857
58783377,24727
58789598,24723
58795767,24725
58801958,24719
58808121,24714
58814333,24717
58820479,24714
58827278,24709
58833478,24709
58839671,24707
58845857,24707
58852087,24700
58858286,24701
58864488,24704
58870671,24698
58876882,24700
58883129,24699
58889345,24703
58894789,24700
58900954,24702
58907135,24695
58918541,24685
58924745,24674
58930962,24681
58937122,24681
58943323,24684
58949509,24683
58954927,24679
58961094,24678
58967288,24682
58973507,24679
58979709,24684
58985956,24680
58992143,24681
58997400,24683
59003578,24685
59009780,24677
59016007,24681
59022195,24682
59028390,24678
59035111,24679
59041357,24679
59053012,24651
59059190,24641
59065389,24649
59071627,24649
59077838,24653
59084032,24652
59089237,24650
59095370,24644
59101594,24658
59107782,24643
59114000,24648
59120164,24651
59126353,24650
59132547,24650
59138735,24652
59144958,24651
59151202,24658
59157384,24652
59163557,24654
59168990,24650
59175188,24651
59186574,24672
59192758,24673
59205786,24675
59212006,24674
59218330,24675
59224540,24672
59230771,24678
59236994,24680
59243217,24685
59249409,24684
59256267,24679
59262429,24682
59267702,24687
59273992,24677
59280197,24681
59286402,24683
59292626,24690
59298102,24683
59304261,24688
59315721,24722
59321971,24723
59328169,24725
59334414,24728
59340624,24726
59346792,24733
59353023,24731
59358514,24730
59364678,24730
59370885,24737
59377045,24737
59383253,24737
59389453,24744
59395688,24745
59400873,24749
59407086,24741
59413296,24745
59419490,24746
59425709,24746
59431914,24751
59438121,24742
59444351,24744
59450556,24627
59456748,24624
59463574,24625
59469806,24626
59476049,24624
59482248,24622
59488405,24614
59493862,24618
59500057,24613
59506291,24616
59512536,24613
59518760,24608
59524983,24609
59531233,24604
59536492,24606
59542782,24613
59549008,24621
59555198,24616
59561386,24612
59567610,24610
59573123,24616
59579352,24613
59590830,24623
59597046,24629
59603289,24622
59609541,24623
59615769,24624
59622027,24632
59627497,24631
59633739,24628
59639960,24632
59646198,24635
59652413,24638
59658684,24635
59664944,24637
59670195,24637
59676974,24636
59683243,24641
59689514,24634
59695775,24634
59702023,24645
59707504,24642
59713735,24645
59725134,24656
59731386,24657
59737634,24654
59743879,24652
59750115,24657
59756335,24653
59761826,24663
59768030,24665
59774263,24665
59780460,24664
59786700,24655
59792911,24666
59799150,24669
59805417,24672
59811648,24671
59817930,24674
59824110,24673
59830368,24671
59836605,24676
59841844,24684
59848068,24679
59859760,24738
59865995,24738
59872239,24736
59878455,24748
59884703,24749
59891571,24747
59896816,24746
59903061,24751
59909309,24756
59915540,24753
59921769,24750
59927987,24759
59934198,24765
59939738,24763
59945960,24770
59952200,24768
59958430,24769
59964675,24770
59970908,24771
59976383,24779
59982644,24778
59994124,24825
60000373,24818
60006634,24829
60012907,24824
60019152,24834
60025393,24823
60030860,24830
60037097,24829
60043335,24834
60049543,24828
60055738,24833
60061995,24832
60068246,24834
60074486,24834
60080711,24844
60086914,24836
60093135,24841
60099388,24847
60106300,24843
60111552,24845
60117732,24847
60129343,24748
60135571,24744
60141779,24739
60148047,24741
60154294,24739
60160535,24736
60165766,24736
60171967,24732
60178184,24727
60184422,24732
60190676,24719
60196914,24724
60203164,24721
60208708,24720
60214986,24727
60221243,24730
60227479,24720
60233707,24722
60239890,24720
60245407,24722
60251652,24715
60263140,24724
60269343,24722
60275582,24723
60281810,24718
60288049,24727
60294288,24724
60299761,24721
60305959,24726
60312151,24724
60318978,24724
60325173,24732
60331431,24727
60337678,24732
60342908,24720
60349168,24729
60355364,24729
60361595,24728
60367763,24725
60373972,24729
60379437,24738
60385680,24731
60397083,24729
60403326,24729
60409531,24727
60415711,24733
60421897,24727
60428107,24737
60434322,24733
60440512,24734
60446711,24727
60459548,24736
60465778,24734
60472072,24735
60478329,24732
60484501,24735
60490728,24732
60496923,24738
60503128,24734
60508613,24739
60514773,24745
60526222,24784
60533031,24777
60539271,24783
60545489,24777
60551724,24776
60557943,24777
60564146,24781
60569656,24778
60575837,24785
60582029,24783
60588204,24786
60594373,24787
60600617,24800
60606818,24795
60612033,24794
60618240,24796
60624441,24793
60630648,24794
60636837,24794
60643045,24790
60649224,24793
60660853,24826
60667005,24826
60673183,24828
60679365,24825
60685600,24827
60691793,24818
60697972,24821
60703210,24832
60709418,24824
60715584,24820
60721783,24824
60727972,24819
60734149,24815
60740359,24816
60747215,24816
60753406,24820
60759624,24821
60765832,24805
60772062,24807
60778252,24802
60783717,24802
60795128,24709
60801342,24704
60807580,24714
60813738,24706
60819945,24706
60826144,24709
60832346,24715
60837815,24712
60843990,24710
60850166,24701
60856393,24711
60862600,24706
60868810,24708
60875003,24711
60881189,24709
60886395,24710
60892594,24706
60898777,24711
60904968,24714
60911172,24711
60917367,24715
60928947,24727
60935099,24725
60941286,24728
60947473,24731
60953705,24727
60960519,24730
60966736,24727
60971916,24733
60978087,24732
60984260,24731
60990466,24733
60996646,24734
61002841,24730
61009073,24733
61015275,24733
61020731,24731
61026934,24730
61033095,24733
61039287,24727
61045442,24729
61051656,24727
61063090,24745
61069286,24739
61075478,24738
61081682,24742
61087883,24737
61094139,24739
61100376,24742
61106564,24743
61112745,24746
61118912,24743
61125068,24752
61131263,24747
61137452,24750
61143651,24749
61149857,24749
61155387,24749
61161618,24757
61168441,24751
61174643,24750
61180836,24757
61186976,24757
61197717,24792
61203885,24799
61210083,24795
61216275,24803
61222476,24800
61228651,24800
61234851,24804
61241062,24805
61246464,24802
61252640,24804
61258814,24806
61265068,24813
61271313,24802
61277558,24815
61283776,24807
61289975,24818
61296166,24812
61302334,24800
61308552,24817
61314768,24805
61320954,24807
61331684,24801
61337886,24801
61344108,24790
61350278,24795
61356499,24790
61362716,24782
61368970,24777
61375172,24770
61381176,24763
61387380,24762
61393579,24757
61399780,24749
61406011,24748
61412209,24750
61418441,24741
61424667,24731
61430113,24826
61436291,24731
61442436,24733
61448656,24733
61454863,24723
61460049,24716
61466277,24697
61472443,24690
61478657,24699
61484844,24697
61491067,24697
61497235,24693
61503424,24690
61509581,24695
61515782,24697
61521978,24694
61528127,24699
61534336,24691
61540510,24694
61546716,24696
61552873,24692
61559063,24696
61564496,24697
61570715,24702
61576932,24699
61583165,24696
61589961,24698
61595162,24697
61606912,24720
61613124,24720
61619328,24724
61625600,24724
61631805,24721
61638001,24724
61644133,24726
61650308,24722
61655803,24726
61661945,24718
61668137,24724
61674342,24723
61680533,24730
61686757,24729
61692971,24725
61705739,24733
61711976,24731
61718289,24721
61724547,24729
61735995,24760
61742182,24765
61748359,24769
61754555,24763
61760737,24754
61766939,24762
61773179,24766
61779374,24769
61784820,24770
61791054,24774
61797216,24776
61803960,24775
61810191,24781
61816392,24778
61822655,24780
61827898,24786
61834105,24789
61840314,24789
61846493,24788
61852678,24786
61858884,24790
61869779,24817
61875987,24820
61882179,24829
61888372,24816
61894598,24818
61900841,24812
61907003,24821
61913206,24820
61919394,24822
61925593,24817
61931782,24823
61937989,24819
61944166,24823
61950325,24819
61956536,24827
61962749,24826
61968956,24821
61975132,24829
61981303,24829
61987456,24827
61993695,24829
62004392,24762
62010579,24754
62017370,24755
62023567,24744
62029750,24737
62035995,24738
62042227,24737
62048416,24729
62054638,24726
62060069,24724
62066249,24715
62072432,24713
62078688,24705
62084906,24707
62091115,24701
62097337,24702
62102538,24695
62108727,24704
62114916,24691
62121117,24691
62127327,24689
62138162,24667
62144350,24665
62150547,24664
62156756,24659
62162963,24660
62169178,24668
62175348,24664
62181541,24664
62187719,24655
62193926,24657
62200134,24664
62206361,24662
62212552,24666
62218749,24661
62225648,24665
62231850,24666
62237046,24660
62243251,24668
62249452,24664
62255640,24665
62261785,24670
62273382,24655
62279661,24657
62285844,24660
62292037,24655
62298250,24659
62304475,24657
62310693,24655
62316925,24656
62323110,24660
62328354,24664
62334557,24656
62340746,24660
62346919,24653
62353100,24657
62359324,24650
62365490,24652
62371679,24646
62377862,24654
62384095,24658
62390289,24660
62396445,24657
62407240,24680
62413428,24678
62419641,24678
62425849,24684
62432034,24683
62438847,24679
62445032,24681
62451218,24676
62457401,24684
62462625,24676
62468770,24685
62474961,24689
62481177,24682
62487407,24684
62493606,24687
62499835,24685
62506093,24684
62511502,24688
62517676,24698
62523859,24693
62530048,24694
62540683,24780
62546873,24775
62553084,24784
62559295,24779
62565530,24788
62571728,24798
62577940,24788
62584079,24797
62590304,24798
62596467,24809
62601682,24807
62607867,24798
62614098,24801
62620293,24804
62626488,24808
62632687,24806
62638877,24813
62645696,24811
62651898,24816
62658121,24814
62664276,24809
62674935,24851
62681134,24840
62687373,24834
62693557,24830
62699753,24840
62705891,24833
62712093,24819
62718302,24822
62724492,24825
62730671,24822
62736122,24814
62742318,24812
62748515,24805
62754733,24803
62760927,24801
62767170,24789
62773402,24786
62779561,24782
62785787,24778
62791978,24775
62798183,24772
62804392,24768
62815184,24728
62821415,24724
62827653,24727
62833886,24727
62840128,24738
62846310,24734
62852554,24728
62859338,24731
62865475,24737
62870950,24725
62877215,24730
62883412,24731
62889647,24733
62895891,24729
62902081,24724
62908252,24725
62914447,24728
62919685,24728
62925909,24726
62932161,24729
62938400,24727
62955925,24746
62962213,24747
62968513,24748
62974763,24746
62981047,24748
62987242,24740
62993473,24745
62998709,24751
63004955,24750
63011175,24743
63017436,24736
63023690,24744
63029920,24749
63036183,24744
63042406,24742
63048693,24739
63054929,24746
63061130,24746
63067338,24745
63078965,24760
63085183,24765
63091427,24759
63097667,24766
63103867,24766
63110086,24769
63116251,24770
63122550,24763
63128781,24772
63133999,24771
63140184,24774
63146403,24778
63152661,24780
63158856,24780
63165109,24778
63171324,24780
63177577,24785
63183821,24782
63189273,24792
63195504,24781
63201717,24790
63212433,24811
63218658,24817
63224933,24815
63231163,24811
63237371,24820
63243619,24814
63249889,24817
63256085,24821
63262250,24822
63267689,24824
63273860,24820
63280091,24818
63286940,24828
63293162,24825
63299426,24821
63305660,24817
63311861,24822
63318094,24829
63323300,24822
63329519,24825
63335775,24829
63346757,24851
63352960,24852
63359213,24849
63365450,24850
63371681,24857
63377897,24853
63384151,24855
63390363,24860
63396578,24859
63401825,24861
63408025,24860
63414213,24859
63420457,24863
63426693,24856
63432903,24848
63439156,24852
63445393,24859
63451661,24860
63457849,24852
63464075,24852
63470272,24856
63481237,24714
63487477,24710
63493714,24710
63500535,24707
63506795,24702
63513023,24700
63519267,24697
63525478,24696
63531706,24694
63536898,24689
63543101,24686
63549302,24686
63555563,24689
63561789,24686
63568024,24689
63574266,24687
63580500,24689
63586725,24688
63592906,24680
63598381,24675
63604602,24691
63616041,24683
63622259,24679
63628483,24684
63634732,24685
63640939,24685
63647175,24685
63653386,24688
63659641,24687
63665876,24691
63671367,24694
63677588,24691
63683798,24689
63690028,24692
63696281,24691
63702533,24688
63708775,24684
63715651,24689
63721881,24691
63728072,24690
63733324,24694
63739557,24688
63750494,24682
63756730,24688
63762959,24684
63769195,24687
63775436,24680
63781654,24686
63787864,24688
63794057,24688
63800292,24686
63805509,24688
63811690,24684
63817886,24688
63824121,24690
63830328,24692
63836600,24700
63842836,24696
63849078,24691
63855327,24704
63861600,24695
63867081,24696
63873351,24700
63884834,24740
63891108,24740
63897314,24740
63903572,24742
63909820,24745
63916043,24741
63922864,24744
63929138,24743
63935341,24748
63940829,24747
63947065,24754
63953358,24747
63959633,24748
63965853,24753
63972079,24751
63978341,24758
63984565,24760
63990777,24760
63996995,24768
64002197,24764
64008381,24760
64014598,24802
64020031,24795
64026238,24798
64032409,24795
64038609,24806
64044842,24802
64051020,24802
64057236,24797
64063411,24807
64069594,24807
64074790,24811
64080970,24812
64087211,24811
64093423,24812
64099670,24809
64105917,24806
64112171,24810
64118350,24812
64124581,24815
64130781,24811
64136916,24814
64143155,24809
64153794,24842
64159971,24833
64166190,24843
64172398,24834
64178624,24835
64184814,24831
64191012,24840
64203743,24834
64209981,24826
64216218,24822
64222381,24823
64228587,24819
64234790,24817
64240998,24809
64247209,24811
64253445,24797
64259676,24796
64265158,24788
64271393,24781
64277641,24770
64288347,24662
64294514,24661
64300705,24659
64306907,24666
64313126,24662
64319352,24655
64325618,24661
64331834,24666
64337991,24661
64343448,24669
64349706,24667
64356457,24661
64362616,24668
64368822,24663
64374950,24658
64381087,24653
64387290,24655
64393461,24655
64399668,24651
64405873,24640
64412033,24639
64422770,24763
64428980,24767
64435191,24771
64441374,24778
64447622,24776
64453803,24785
64459987,24791
64466152,24786
64472309,24795
64478497,24796
64484687,24798
64490846,24808
64497032,24799
64503202,24809
64509424,24817
64515636,24807
64521863,24818
64528112,24813
64534291,24812
64539737,24816
64545941,24817
64552102,24887
64558298,24881
64565124,24888
64571331,24889
64577553,24893
64583814,24897
64590055,24897
64596265,24901
64602438,24905
64608681,24905
64614840,24904
64620040,24913
64626227,24916
64632400,24911
64638629,24922
64644809,24927
64651047,24921
64657241,24923
64663448,24927
64669639,24934
64675077,24940
64681244,24940
64691895,25012
64698108,25016
64704317,25020
64710484,25014
64716698,25023
64722891,25021
64729066,25025
64735263,25027
64741439,25026
64747630,25027
64752834,25036
64759008,25028
64765223,25029
64771998,25035
64778258,25029
64784485,25034
64790707,25033
64796909,25036
64803089,25044
64808546,25042
64814752,25041
64826141,25085
64832335,25090
64838527,25085
64844705,25081
64850911,25085
64857141,25089
64863352,25096
64869524,25089
64875715,25092
64881867,25097
64887341,25100
64893501,25101
64899708,25099
64905914,25098
64912132,25103
64918378,25107
64924609,25100
64930744,25107
64937007,25109
64943237,25104
64949392,25106
64960774,24947
64966178,24951
64972360,24941
64978587,24937
64985441,24935
64991678,24933
64997870,24929
65004052,24926
65010239,24923
65016423,24916
65021621,24918
65027777,24919
65033962,24911
65040181,24912
65046402,24910
65052642,24904
65058801,24906
65064997,24898
65071231,24900
65077423,24902
65082892,24895
65089073,24889
65095248,24878
65100455,24864
65106668,24872
65112852,24866
65119059,24877
65125247,24876
65131469,24879
65137671,24874
65143875,24882
65150113,24878
65156307,24877
65162456,24875
65168684,24881
65174865,24883
65181075,24872
65187251,24877
65194090,24879
65200319,24881
65206507,24872
65212718,24875
65218139,24867
65224315,24869
65234938,24838
65241150,24832
65247344,24836
65253562,24840
65259743,24838
65265929,24838
65272128,24836
65278333,24837
65284427,24838
65290612,24838
65296827,24840
65303027,24839
65309224,24839
65315401,24836
65321652,24835
65327910,24844
65334108,24843
65340329,24839
65346456,24845
65351710,24841
65357894,24847
65369568,24871
65375810,24875
65382005,24875
65388220,24879
65394397,24879
65400557,24878
65407426,24879
65413627,24886
65419791,24881
65425981,24886
65431220,24882
65437424,24886
65443627,24885
65456681,24887
65462939,24897
65469148,24896
65475367,24890
65481562,24895
65487810,24897
65499214,24919
65504700,24923
65510917,24918
65517129,24917
65523303,24923
65529517,24931
65535738,24928
65541949,24931
65548109,24931
65554338,24924
65559545,24929
65565701,24936
65571848,24934
65578067,24933
65584265,24940
65590480,24933
65596689,24938
65602893,24936
65609127,24932
65615356,24939
65622130,24943
65633824,24809
65639381,24810
65645583,24793
65651773,24797
65657976,24788
65664140,24793
65670328,24783
65676514,24775
65682717,24782
65688920,24778
65694123,24776
65700310,24769
65706495,24764
65712695,24767
65718919,24757
65725131,24761
65731342,24760
65737522,24761
65743697,24755
65749901,24754
65755386,24757
65761572,24756
65767804,24747
65773355,24751
65779602,24755
65785842,24756
65792102,24757
65798383,24758
65804617,24764
65810801,24754
65817017,24764
65823194,24765
65829446,24762
65836360,24767
65842593,24765
65848826,24766
65855031,24765
65861276,24770
65867539,24765
65873770,24768
65879964,24761
65886169,24765
65891429,24766
65903194,24747
65908472,24753
65914721,24750
65920958,24747
65927173,24751
65933421,24745
65939686,24748
65945882,24749
65952106,24745
65958275,24754
65964480,24758
65969988,24751
65976234,24750
65982471,24753
65988694,24756
65994915,24757
66001139,24761
66007342,24766
66013569,24764
66019797,24754
66024999,24764
66036678,24807
66041908,24812
66048802,24818
66055007,24814
66061248,24815
66067477,24820
66073739,24815
66079982,24818
66086192,24819
66092385,24825
66098641,24825
66104109,24820
66110340,24831
66116577,24829
66122838,24828
66129082,24826
66135372,24836
66141587,24828
66147790,24829
66153997,24835
66159220,24829
66170933,24874
66176154,24875
66182398,24879
66188645,24876
66194893,24880
66201144,24874
66207341,24879
66213553,24879
66219792,24883
66226014,24878
66232248,24880
66237755,24877
66243968,24881
66250217,24878
66256502,24875
66263370,24880
66269627,24869
66275873,24873
66282111,24866
66288336,24864
66293575,24861
66305281,24690
66311509,24690
66317743,24678
66323923,24680
66330167,24677
66336443,24669
66342664,24667
66348889,24671
66355104,24674
66361344,24665
66367592,24666
66372822,24657
66379047,24663
66385271,24663
66391507,24663
66397785,24656
66404040,24661
66410256,24657
66416455,24653
66422682,24651
66428141,24660
66439668,24662
66445911,24667
66452151,24665
66458372,24664
66464655,24663
66471523,24664
66477803,24662
66484038,24664
66490243,24672
66496497,24661
66502727,24666
66508232,24665
66514457,24667
66520687,24660
66526915,24665
66533072,24663
66539287,24665
66545443,24661
66551694,24661
66557916,24665
66563130,24662
66574788,24662
66580997,24663
66586266,24663
66592540,24667
66598807,24662
66605059,24655
66611324,24657
66617543,24660
66623773,24668
66630028,24666
66636253,24672
66641698,24666
66647910,24673
66654165,24673
66660414,24670
66666681,24673
66672903,24672
66679108,24680
66685944,24678
66692131,24678
66703958,24733
66710157,24731
66715670,24730
66721912,24731
66728150,24743
66734359,24734
66740609,24738
66746793,24738
66753007,24748
66759171,24743
66765343,24739
66770562,24741
66776791,24742
66782933,24747
66789165,24744
66795405,24747
66801644,24747
66807851,24741
66814092,24740
66820288,24742
66826481,24745
66832675,24748
66844352,24795
66849568,24783
66855769,24788
66862003,24793
66868212,24793
66874405,24791
66880640,24799
66886852,24796
66893061,24791
66899279,24798
66906149,24794
66912380,24795
66918651,24791
66924829,24791
66931017,24793
66937232,24779
66943426,24789
66949653,24784
66955853,24788
66962027,24776
66967450,24786
66978874,24803
66984348,24804
66990523,24813
66996737,24807
67002923,24808
67009138,24814
67015345,24818
67021540,24817
67027750,24815
67033984,24820
67040183,24818
67045392,24823
67051596,24823
67057769,24826
67063977,24822
67070214,24816
67076402,24823
67082598,24820
67088762,24825
67094926,24826
67101139,24828
67112755,24849
67118624,24850
67124792,24850
67131016,24849
67137227,24844
67143435,24837
67149651,24844
67155847,24845
67162065,24841
67168244,24834
67174424,24840
67179868,24843
67186085,24836
67192315,24838
67198540,24830
67204777,24833
67210997,24838
67217204,24831
67223349,24840
67229530,24843
67235734,24832
67247170,24830
67252644,24834
67258858,24840
67265089,24836
67271316,24839
67277479,24828
67283707,24837
67289932,24841
67296091,24840
67302266,24843
67308414,24846
67313615,24846
67319827,24844
67326668,24848
67332896,24850
67339115,24848
67345304,24843
67351493,24851
67357683,24851
67363868,24853
67370042,24848
67380701,24879
67386902,24886
67393121,24887
67399343,24884
67405535,24890
67411718,24896
67417891,24887
67424129,24890
67430304,24895
67436518,24902
67442768,24900
67448247,24898
67454436,24905
67460597,24910
67466807,24909
67473011,24908
67479201,24909
67485392,24913
67491576,24913
67497797,24912
67503989,24910
67514687,24758
67520857,24751
67527038,24757
67533246,24746
67540141,24742
67546355,24738
67552557,24740
67558739,24731
67564905,24726
67571154,24729
67577355,24719
67582825,24719
67589044,24708
67595230,24707
67601423,24705
67607659,24704
67613864,24706
67620013,24703
67626203,24705
67632393,24698
67638576,24700
67649327,24705
67655523,24710
67661700,24709
67667125,24714
67673345,24710
67679506,24710
67685725,24715
67691915,24721
67698091,24718
67704262,24719
67710444,24723
67716654,24727
67721881,24722
67728093,24717
67734289,24721
67740486,24725
67747217,24724
67753452,24727
67759609,24725
67765769,24728
67771949,24730
67782607,24700
67788786,24706
67794946,24709
67801183,24710
67807391,24697
67813588,24701
67819794,24709
67825995,24704
67832215,24701
67838418,24696
67844571,24708
67850791,24709
67856239,24707
67862479,24701
67868709,24701
67874924,24711
67881148,24710
67887368,24715
67893566,24709
67899769,24716
67905995,24714
67912223,24715
67917465,24746
67923647,24745
67929831,24751
67936085,24751
67941545,24756
67954397,24753
67960661,24761
67967554,24760
67973770,24759
67979968,24760
67985502,24766
67991719,24760
67997961,24764
68004192,24764
68010405,24773
68016670,24769
68022910,24767
68029094,24773
68035334,24769
68041530,24770
68046772,24779
68053012,24775
68059209,24767
68065412,24763
68070896,24753
68077117,24746
68083267,24737
68089470,24739
68095725,24725
68101907,24722
68108100,24717
68114312,24710
68119518,24697
68125703,24695
68131893,24677
68138124,24674
68144294,24663
68150446,24660
68156668,24654
68162841,24640
68169067,24631
68175855,24629
68186953,24522
68193130,24515
68199382,24518
68204579,24511
68210786,24521
68216947,24521
68223200,24518
68229412,24517
68235620,24517
68241761,24521
68247913,24520
68253384,24516
68259527,24516
68265717,24516
68271879,24516
68278055,24520
68284243,24523
68290452,24522
68296704,24523
68302906,24518
68309081,24526
68314282,24524
68325877,24545
68332058,24551
68338287,24546
68343492,24543
68349692,24546
68355900,24547
68362155,24541
68368358,24542
68374550,24545
68380757,24544
68387509,24541
68393736,24538
68399939,24541
68406185,24544
68412386,24535
68418584,24539
68424779,24536
68430961,24539
68437159,24532
68443377,24535
68448811,24538
68460182,24563
68466398,24562
68472612,24553
68478036,24566
68484233,24561
68490415,24564
68496612,24562
68502765,24573
68508969,24566
68515158,24564
68521441,24570
68527660,24571
68533899,24575
68540070,24576
68546293,24573
68552479,24577
68558714,24582
68564918,24582
68571091,24586
68577257,24589
68583452,24594
68589637,24642
68595851,24631
68602752,24641
68607964,24649
68614191,24639
68620391,24642
68626611,24651
68632786,24644
68638996,24653
68645213,24648
68651387,24646
68657580,24649
68663751,24648
68669924,24652
68676129,24648
68682314,24644
68688485,24641
68694677,24644
68700821,24643
68707034,24628
68713189,24635
68719385,24627
68730065,24422
68736320,24416
68742513,24416
68748724,24407
68754930,24410
68761120,24402
68767317,24401
68773496,24399
68779659,24390
68785867,24394
68792071,24393
68798283,24393
68803766,24394
68810667,24388
68816884,24384
68823077,24386
68829295,24383
68835461,24374
68841697,24383
68847874,24380
68854044,24377
68864780,24397
68870953,24405
68877155,24397
68882652,24401
68888877,24403
68895103,24398
68901286,24402
68907476,24411
68913721,24401
68919959,24403
68926142,24410
68932317,24404
68938460,24401
68944712,24400
68950931,24403
68957122,24398
68963298,24398
68969501,24394
68975707,24396
68981881,24397
68988090,24395
68998816,24383
69005000,24381
69011187,24386
69016658,24384
69023514,24384
69029722,24393
69035905,24389
69042076,24389
69048259,24389
69054477,24391
69060706,24396
69066923,24400
69073134,24400
69078351,24397
69084489,24397
69090706,24401
69096874,24403
69103066,24400
69109260,24401
69115431,24404
69121613,24407
69127050,24408
69133254,24460
69139463,24460
69145714,24472
69151920,24462
69158108,24467
69164300,24471
69170503,24471
69176722,24475
69182932,24470
69189122,24480
69201960,24469
69207468,24479
69213791,24482
69220062,24484
69226323,24479
69232545,24482
69239454,24489
69245689,24486
69251943,24488
69257157,24491
69268733,24500
69274973,24500
69281260,24496
69286501,24483
69292758,24485
69298986,24481
69305200,24478
69311433,24464
69317644,24463
69323844,24454
69330076,24443
69336285,24437
69342534,24429
69348780,24419
69355003,24413
69361247,24402
69367478,24389
69373667,24384
69379854,24386
69386074,24371
69391558,24367
69402955,24244
69409207,24244
69415474,24250
69420930,24247
69427190,24248
69433440,24249
69439701,24244
69445943,24250
69452845,24243
69459070,24253
69465296,24247
69471501,24244
69477740,24247
69482968,24249
69489152,24254
69495385,24246
69501618,24255
69507801,24252
69514004,24265
69520243,24259
69525801,24262
69537508,24314
69543725,24311
69549933,24315
69555152,24310
69561345,24307
69567556,24314
69573769,24312
69579949,24307
69586176,24308
69592402,24306
69598631,24311
69604847,24311
69611125,24308
69616647,24309
69622857,24307
69629078,24298
69635319,24306
69641526,24312
69647751,24310
69653945,24304
69660783,24300
69672263,24345
69678406,24338
69684601,24347
69690078,24345
69696330,24347
69702590,24350
69708809,24352
69715027,24353
69721231,24356
69727466,24360
69733704,24361
69739881,24361
69746061,24356
69751271,24361
69757449,24365
69763716,24361
69769956,24373
69776154,24376
69782379,24381
69788622,24377
69794863,24378
69805500,24420
69811693,24424
69817910,24423
69824173,24428
69830385,24428
69836627,24429
69842854,24429
69849092,24432
69855315,24428
69861531,24441
69867753,24439
69874656,24436
69880870,24435
69886355,24450
69892563,24440
69898791,24450
69905011,24448
69911207,24446
69917438,24448
69923653,24446
69929875,24449
69940636,24374
69946880,24375
69953106,24368
69959334,24360
69964803,24352
69971044,24346
69977298,24332
69983527,24326
69989764,24319
69995956,24314
70002143,24309
70008381,24299
70014609,24286
70019856,24287
70026104,24274
70032338,24274
70038544,24276
70044786,24267
70051014,24260
70057228,24257
70063454,24252
70074153,24225
70080364,24229
70087258,24224
70093467,24220
70098991,24222
70105218,24223
70111460,24224
70117722,24223
70123934,24228
70130105,24226
70136337,24232
70142604,24232
70148844,24234
70155007,24235
70161256,24238
70167519,24236
70173741,24239
70179940,24242
70186209,24241
70192443,24245
70198667,24251
70209449,24240
70215757,24236
70221996,24239
70228215,24237
70233727,24236
70239953,24233
70246176,24238
70252425,24235
70258629,24233
70264852,24232
70271053,24225
70277343,24235
70283588,24228
70289848,24229
70295688,24234
70301963,24234
70308171,24229
70314397,24228
70320577,24229
70326763,24228
70332925,24230
70343574,24269
70349781,24276
70356012,24276
70362217,24277
70367700,24276
70373889,24276
70380089,24277
70386310,24280
70392463,24282
70398591,24291
70404836,24288
70411033,24284
70417232,24291
70423418,24293
70428593,24288
70434797,24293
70441017,24296
70454066,24297
70460295,24299
70471146,24342
70477350,24347
70483527,24343
70489748,24350
70495941,24347
70501419,24355
70507668,24355
70514405,24354
70520657,24353
70526866,24352
70533061,24357
70539250,24349
70545456,24351
70551695,24353
70557956,24352
70564152,24350
70570350,24351
70576523,24355
70582778,24354
70588985,24347
70595125,24350
70605900,24119
70612108,24120
70618289,24118
70624513,24106
70630686,24101
70636859,24097
70643087,24100
70649261,24095
70655442,24088
70661610,24089
70667806,24086
70673972,24077
70680177,24078
70686416,24076
70692650,24082
70698107,24079
70704343,24076
70710508,24073
70716740,24075
70723483,24069
70729725,24074
70740507,24078
70746698,24088
70752901,24084
70759083,24092
70765269,24087
70770741,24090
70776913,24086
70783096,24088
70789285,24093
70795431,24094
70801665,24095
70807882,24090
70814016,24092
70820184,24092
70826401,24097
70832628,24096
70838825,24095
70845052,24090
70851282,24092
70857451,24096
70863650,24089
70874389,24077
70880536,24076
70886756,24090
70892967,24079
70899241,24085
70905448,24081
70911673,24085
70917866,24082
70924072,24083
70930274,24088
70937131,24092
70943347,24092
70949629,24095
70955816,24092
70962037,24099
70968261,24096
70973754,24094
70979973,24105
70986187,24101
70992408,24099
70998581,24101
71009318,24158
71015510,24166
71021715,24165
71027892,24167
71034121,24173
71040284,24172
71045703,24181
71051907,24178
71058077,24173
71064223,24177
71070400,24178
71076611,24178
71082835,24184
71089045,24184
71095256,24187
71101433,24182
71106664,24191
71112843,24191
71119096,24195
71125277,24194
71131459,24197
71137640,24197
71149130,24226
71155322,24224
71161513,24231
71167712,24221
71173933,24218
71180136,24214
71186347,24207
71192538,24206
71198787,24199
71204980,24183
71211159,24179
71217358,24175
71223506,24171
71229733,24159
71235889,24151
71241086,24139
71247268,24135
71253439,24129
71259597,24118
71265843,24110
71272037,24096
71282686,23916
71288878,23917
71295121,23914
71301304,23916
71307510,23910
71313697,23922
71319905,23911
71326080,23905
71332240,23917
71338429,23917
71344623,23917
71350813,23918
71357637,23911
71363832,23912
71370066,23910
71375497,23910
71381732,23910
71387911,23913
71394065,23910
71400306,23918
71406503,23915
71417270,23929
71423463,23940
71429674,23931
71435866,23934
71442082,23931
71448282,23936
71453734,23927
71459944,23937
71466175,23930
71472372,23928
71478569,23934
71484787,23933
71491007,23928
71497221,23931
71503421,23929
71509662,23938
71514863,23928
71521041,23926
71527262,23930
71533461,23926
71539661,23926
71550269,23947
71556453,23952
71562641,23951
71569428,23951
71575577,23948
71581779,23955
71587955,23953
71594160,23957
71600327,23966
71606522,23964
71612708,23968
71618869,23967
71625074,23977
71631243,23971
71637438,23978
71643631,23981
71649110,23980
71655313,23985
71661453,23986
71667651,23985
71673844,23988
71684646,24046
71690884,24047
71703705,24047
71709903,24044
71716198,24049
71722416,24052
71728646,24057
71734808,24056
71740971,24054
71747179,24056
71753382,24057
71759651,24056
71765949,24065
71772189,24066
71777695,24062
71784570,24074
71790812,24066
71797057,24068
71803323,24070
71814158,24107
71820380,24105
71826627,24103
71832859,24096
71839099,24099
71845323,24097
71851548,24092
71857787,24088
71863293,24074
71869508,24073
71875713,24069
71881918,24059
71888153,24044
71894413,24041
71900642,24029
71906841,24018
71912096,24010
71918360,24000
71924633,23994
71930883,23977
71937129,23970
71947836,23735
71954062,23736
71960272,23734
71966526,23732
71972745,23732
71978979,23729
71985170,23727
71991366,23721
71997493,23726
72003752,23719
72009953,23720
72016182,23717
72022405,23718
72028631,23721
72034881,23716
72041129,23714
72046370,23710
72052654,23720
72058866,23711
72065084,23719
72071322,23712
72082079,23751
72088269,23748
72094451,23758
72100626,23749
72106798,23754
72112983,23754
72119207,23754
72125414,23758
72131638,23756
72137824,23750
72144055,23757
72150264,23752
72156455,23754
72162663,23758
72168897,23752
72175114,23749
72180594,23750
72186783,23753
72192998,23750
72199194,23754
72205410,23754
72216828,23779
72223085,23783
72229302,23781
72235513,23787
72241731,23790
72247889,23800
72254124,23793
72260308,23798
72266472,23798
72271895,23802
72278113,23809
72284324,23806
72290470,23813
72296729,23815
72302892,23817
72309085,23817
72315362,23824
72321589,23824
72327795,23828
72334007,23829
72340199,23837
72350949,23912
72357180,23911
72363383,23909
72369574,23914
72375778,23913
72381988,23918
72388196,23912
72394397,23916
72400582,23915
72406012,23921
72412218,23921
72419050,23928
72425316,23928
72431554,23930
72437816,23928
72444041,23928
72450329,23936
72455583,23933
72461905,23933
72468130,23932
72474356,23931
72485054,23995
72491276,23994
72497505,23998
72503718,23997
72509923,24001
72516149,24004
72522400,24000
72528671,24004
72534910,24011
72540402,24006
72546601,24008
72552819,24013
72559017,24013
72565217,24018
72571459,24014
72577724,24017
72583965,24018
72589518,24018
72595754,24020
72601984,24023
72608176,24028
72619625,24083
72625823,24093
72632653,24094
72638863,24094
72645125,24102
72651371,24099
72657574,24104
72663836,24110
72670073,24109
72675492,24108
72681710,24106
72687957,24109
72694183,24116
72700426,24113
72706641,24118
72712892,24118
72719090,24118
72724336,24121
72730561,24122
72736783,24127
72743011,24127
72754719,24161
72759931,24152
72766181,24146
72772389,24142
72778657,24132
72784831,24124
72791073,24118
72797320,24110
72803535,24104
72809065,24093
72815299,24085
72821539,24069
72827798,24062
72834026,24043
72840261,24037
72847030,24021
72853275,24012
72858532,24000
72864791,23990
72870959,23969
72877208,23963
72888872,23738
72894111,23737
72900304,23728
72906474,23734
72912730,23730
72918938,23729
72925213,23721
72931395,23721
72937603,23726
72943780,23716
72956884,23714
72963105,23717
72969362,23720
72975564,23719
72981791,23717
72988046,23716
72994277,23714
73000516,23714
73006744,23712
73018190,23716
73023598,23718
73029815,23717
73035992,23713
73042168,23717
73048405,23714
73054575,23710
73061440,23715
73067687,23710
73073870,23721
73079417,23714
73085662,23709
73091863,23716
73098068,23709
73104247,23707
73110497,23709
73116730,23706
73122937,23708
73128160,23708
73134369,23700
73140588,23700
73152236,23699
73157415,23707
73163577,23714
73169782,23717
73175993,23709
73182225,23716
73188396,23720
73194584,23717
73200788,23724
73206971,23724
73213173,23721
73219393,23724
73225536,23732
73231788,23730
73237964,23728
73244177,23731
73250386,23735
73256606,23733
73262075,23743
73268324,23734
73275079,23740
73286403,23802
73292617,23806
73298784,23807
73304970,23808
73311170,23803
73317389,23810
73323568,23808
73329765,23818
73335916,23816
73342147,23813
73348357,23817
73353735,23815
73359927,23814
73366085,23820
73372285,23824
73378504,23829
73384750,23826
73390992,23831
73396520,23831
73402745,23829
73408956,23835
73415192,23836
73421411,23870
73426609,23870
73432791,23873
73439006,23875
73445193,23869
73451386,23876
73457534,23881
73463755,23880
73469946,23884
73476163,23880
73483033,23883
73488485,23887
73494672,23884
73500836,23893
73507035,23893
73513197,23893
73519452,23896
73525654,23896
73530905,23897
73537111,23906
73543345,23905
73549540,23909
73561177,23968
73567364,23973
73573538,23972
73579755,23980
73585977,23974
73592168,23980
73598382,23985
73604526,23982
73610759,23987
73616944,23987
73622137,23989
73628320,23992
73634505,23994
73640719,23993
73646894,23996
73653156,24008
73659412,24001
73665592,24001
73671811,24007
73677973,24008
73684169,24013
73696495,23858
73701910,23843
73708057,23835
73714246,23833
73720478,23818
73726697,23800
73732874,23799
73739081,23786
73745270,23777
73751448,23775
73756672,23754
73762837,23750
73768994,23734
73775227,23735
73781445,23718
73787633,23715
73793871,23707
73800100,23697
73805519,23688
73811736,23685
73817896,23675
73829330,23617
73835521,23613
73841715,23616
73847892,23617
73854114,23613
73860335,23615
73866589,23617
73872835,23617
73879005,23617
73885219,23617
73890669,23618
73896856,23624
73903744,23634
73909929,23628
73916085,23625
73922330,23631
73928534,23630
73934759,23636
73939977,23640
73946187,23640
73952358,23647
73963998,23672
73970190,23671
73975391,23668
73981581,23672
73987786,23669
73993975,23665
74000204,23668
74006444,23670
74012664,23671
74018850,23671
74025047,23673
74031249,23671
74037434,23674
74043631,23674
74049814,23670
74056011,23670
74062194,23674
74068389,23676
74074578,23678
74080774,23678
74086956,23681
74098653,23750
74104789,23752
74110063,23756
74116942,23765
74123157,23763
74129362,23766
74135570,23775
74141755,23772
74147912,23768
74154124,23774
74160297,23778
74165738,23786
74171914,23782
74178140,23783
74184365,23788
74190537,23791
74203357,23792
74209558,23797
74215806,23795
74227433,23856
74233673,23864
74238926,23857
74245134,23864
74251340,23861
74257569,23867
74263775,23866
74269942,23871
74276181,23873
74282374,23871
74288534,23875
74293976,23875
74300149,23867
74306351,23876
74312531,23879
74318753,23880
74324977,23877
74331867,23879
74338122,23889
74343303,23889
74349474,23892
74355668,23893
74361834,23953
74368006,23954
74374212,23957
74380405,23962
74386588,23958
74392787,23961
74398978,23967
74405226,23966
74411378,23967
74417546,23970
74423708,23973
74429129,23981
74435335,23977
74441489,23979
74447667,23979
74453845,23985
74460054,23987
74466235,23984
74472426,23985
74478627,23992
74484836,23989
74491038,23994
74502453,24055
74508641,24046
74514836,24041
74521046,24037
74527270,24030
74533509,24024
74540221,24023
74546466,24009
74552670,24004
74558856,23999
74564331,23985
74570484,23975
74576698,23971
74582906,23956
74589121,23951
74595308,23939
74601479,23934
74607718,23917
74613947,23907
74619478,23897
74625674,23888
74637098,23660
74643253,23656
74648829,23656
74655025,23649
74661219,23655
74667414,23655
74673600,23654
74679792,23648
74685966,23650
74692185,23653
74697623,23655
74703820,23645
74709991,23653
74716127,23649
74722369,23646
74728578,23643
74734779,23644
74740985,23646
74747181,23655
74752957,23647
74759189,23652
74770900,23690
74777121,23696
74782544,23697
74788766,23694
74794980,23700
74801181,23691
74807351,23692
74813535,23690
74819736,23693
74825935,23693
74832142,23698
74838343,23686
74844525,23690
74850750,23688
74856966,23683
74863156,23689
74869366,23685
74875539,23688
74881757,23688
74886939,23683
74893150,23686
74904794,23713
74911015,23716
74917208,23716
74923420,23717
74929634,23721
74935823,23722
74942030,23723
74948210,23725
74954426,23727
74961201,23732
74967399,23732
74972609,23728
74978788,23739
74984984,23743
74991235,23743
74997481,23739
75003675,23751
75009828,23755
75015998,23749
75021497,23757
75027721,23760
75039110,23827
75045291,23831
75051499,23831
75056952,23833
75063145,23839
75069320,23838
75075534,23841
75081764,23838
75087962,23848
75094113,23852
75100290,23847
75106465,23851
75112636,23848
75118847,23855
75125019,23851
75131202,23855
75137408,23861
75143573,23864
75149765,23863
75154975,23861
75161192,23866
75167386,23868
75174212,23915
75180422,23925
75186604,23927
75192091,23923
75198273,23927
75204479,23931
75210698,23932
75216896,23937
75223094,23943
75229270,23944
75235506,23940
75241725,23949
75246934,23945
75253181,23944
75259400,23948
75265597,23955
75271798,23958
75277972,23952
75284181,23963
75289595,23963
75295801,23968
75301980,23964
75313399,24034
75319617,24036
75325833,24037
75332000,24040
75338238,24042
75344432,24041
75350637,24039
75356828,24039
75363003,24040
75369246,24043
75375432,24038
75381567,24037
75387848,24033
75394068,24032
75400247,24029
75406511,24019
75412714,24012
75418914,24009
75424364,24006
75430534,23995
75436740,23984
75449508,23703
75455681,23704
75460951,23696
75467206,23697
75473435,23689
75479619,23681
75485816,23682
75491967,23681
75498202,23676
75504383,23677
75509803,23663
75515997,23669
75522148,23662
75528361,23664
75534602,23662
75540838,23664
75547031,23665
75552238,23658
75558438,23659
75564672,23655
75570809,23666
75582407,23696
75588674,23690
75594838,23702
75601693,23694
75607888,23699
75614112,23700
75620351,23695
75626538,23700
75632738,23702
75638923,23699
75645093,23704
75651314,23706
75657497,23706
75663694,23707
75669854,23702
75676054,23702
75682231,23702
75687456,23709
75693658,23706
75699841,23698
75706002,23707
75717651,23702
75723874,23703
75730091,23713
75735333,23712
75741540,23710
75747734,23708
75753968,23710
75760204,23720
75766372,23713
75772560,23717
75778756,23716
75784185,23727
75790428,23725
75796634,23729
75802860,23732
75809102,23735
75815969,23734
75821529,23733
75827754,23739
75833947,23743
75840132,23748
75851573,23821
75857783,23819
75863989,23827
75869469,23823
75875712,23829
75881915,23831
75888089,23833
75894312,23833
75900493,23840
75906764,23841
75912947,23837
75919135,23841
75925312,23840
75931533,23851
75937784,23848
75943979,23850
75950192,23850
75955394,23854
75961579,23857
75967818,23851
75973996,23858
75985681,23906
75991873,23914
75998078,23914
76003275,23915
76009451,23911
76015656,23917
76022496,23914
76028774,23914
76034965,23914
76041175,23922
76047358,23926
76053589,23929
76059037,23926
76065240,23928
76071458,23933
76077674,23932
76083852,23925
76090064,23930
76096277,23932
76102457,23934
76108699,23940
76120124,23996
76126332,23997
76132517,23998
76138030,24004
76144213,24005
76150406,24001
76156599,24011
76162820,24003
76169040,24007
76175175,24007
76181423,24018
76187692,24021
76192909,24014
76199083,24019
76205321,24020
76211553,24021
76217752,24020
76223936,24026
76230114,24031
76236902,24030
76243100,24030
76254762,23820
76260989,23812
76267153,23796
76272363,23786
76278560,23775
76284741,23769
76290901,23760
76297132,23731
76303310,23728
76309490,23721
76315679,23718
76321868,23705
76327284,23687
76333476,23684
76339722,23678
76345908,23669
76352131,23664
76358329,23648
76364515,23650
76370711,23643
76376920,23633
76388303,23584
76394519,23590
76400718,23588
76406903,23587
76413084,23590
76419307,23591
76425490,23591
76431670,23591
76437853,23593
76444661,23593
76450875,23597
76457155,23602
76462636,23599
76468834,23603
76475036,23602
76481197,23600
76487416,23609
76493567,23613
76499770,23612
76504958,23603
76511116,23613
76522783,23618
76528981,23615
76535200,23614
76541410,23614
76546614,23617
76552770,23616
76558965,23613
76565174,23609
76571328,23613
76577527,23616
76583743,23616
76589960,23615
76596220,23616
76602421,23615
76608613,23617
76614811,23611
76620973,23612
76627210,23617
76633424,23614
76638849,23613
76645056,23614
76651242,23619
76658113,23698
76664309,23702
76670522,23707
76676748,23713
76681962,23713
76688223,23721
76701258,23715
76707500,23725
76713787,23723
76720021,23721
76726228,23726
76731467,23733
76737651,23732
76743869,23734
76750095,23738
76756327,23744
76762586,23744
76768023,23744
76774231,23740
76780422,23747
76791870,23817
76798050,23815
76804249,23811
76810425,23823
76816644,23825
76822832,23828
76829014,23823
76835260,23827
76841451,23827
76847684,23836
76853851,23831
76860072,23828
76865546,23835
76871780,23837
76878631,23841
76884833,23840
76891018,23849
76897194,23844
76902407,23845
76908614,23851
76914835,23849
76926431,23924
76932592,23932
76938795,23924
76945015,23933
76950218,23929
76956402,23938
76962596,23934
76968769,23943
76974920,23948
76981130,23944
76987348,23950
76993529,23952
76999710,23949
77005922,23956
77012123,23951
77018332,23956
77024516,23964
77030694,23969
77036914,23965
77043096,23967
77049304,23970
77060926,23972
77067110,23968
77073277,23961
77079442,23954
77085551,23942
77091808,23935
77098014,23924
77104191,23915
77110378,23904
77116566,23890
77122784,23884
77128997,23872
77135154,23862
77140360,23848
77146556,23838
77152746,23829
77158934,23822
77165178,23799
77171375,23789
77176855,23779
77183051,23769
77194475,23558
77200675,23561
77206898,23548
77213079,23552
77219251,23555
77225453,23549
77231647,23552
77237818,23552
77243994,23545
77250199,23544
77256369,23553
77262534,23551
77268744,23552
77274195,23546
77280427,23547
77286669,23552
77292908,23548
77299781,23550
77305967,23550
77311158,23548
77317388,23554
77329039,23586
77335237,23587
77341480,23591
77347695,23586
77353871,23585
77359108,23585
77365292,23584
77371519,23588
77377704,23585
77383860,23587
77390036,23587
77396241,23585
77402448,23588
77408620,23592
77414837,23592
77420994,23589
77427214,23590
77433395,23592
77439600,23584
77445809,23593
77451984,23588
77463669,23642
77469935,23647
77476139,23649
77482331,23653
77488504,23663
77493714,23658
77499884,23662
77506684,23666
77512896,23672
77519083,23668
77525296,23671
77531468,23674
77537673,23678
77543857,23685
77549351,23693
77555536,23690
77561775,23699
77567972,23701
77574136,23700
77580352,23706
77585578,23704
77591728,23710
77597896,23791
77604157,23789
77610314,23793
77616510,23797
77622766,23790
77628168,23801
77634350,23804
77640528,23799
77646702,23805
77652875,23805
77659046,23804
77665268,23807
77671429,23809
77677688,23819
77682888,23822
77689112,23820
77695285,23820
77701455,23818
77707642,23826
77713804,23831
77720607,23830
77726835,23830
77738479,23887
77744700,23898
77750868,23894
77757052,23900
77763251,23900
77769440,23901
77775616,23907
77781866,23908
77788089,23902
77794314,23912
77800557,23911
77806776,23919
77812997,23916
77818200,23917
77824380,23921
77830561,23920
77836723,23924
77842879,23928
77849053,23928
77855235,23931
77860701,23929
77872114,23995
77878353,24001
77884530,23995
77890722,23988
77896915,23986
77902353,23990
77908550,23983
77914772,23973
77920956,23965
77927172,23956
77934041,23950
77946854,23940
77953124,23930
77959389,23922
77965585,23913
77971788,23910
77977963,23892
77984175,23890
77989616,23876
78001091,23632
78007333,23635
78013553,23625
78019802,23631
78026035,23626
78032212,23630
78038376,23618
78044558,23620
78050696,23626
78056872,23620
78063055,23619
78069243,23620
78075520,23620
78081749,23620
78087211,23619
78093401,23624
78099602,23619
78105786,23621
78111973,23623
78118136,23626
78123322,23619
78129506,23622
78135709,23667
78141938,23668
78148835,23675
78155016,23672
78161247,23670
78167486,23671
78172953,23669
78179121,23675
78185331,23670
78191500,23676
78197715,23675
78203918,23672
78210102,23670
78216248,23673
78221446,23672
78227624,23667
78233816,23665
78239980,23670
78246226,23671
78252437,23667
78257879,23664
78264084,23666
78275482,23681
78281658,23684
78287913,23683
78294140,23692
78300355,23689
78306561,23691
78312730,23692
78318897,23693
78325089,23699
78331294,23701
78337526,23708
78343754,23699
78349960,23705
78356091,23715
78362321,23720
78368528,23719
78374721,23720
78380887,23723
78387095,23731
78392547,23728
78398772,23734
78410215,23803
78416402,23803
78422622,23807
78428834,23808
78435033,23811
78441209,23811
78446639,23814
78452838,23816
78459063,23818
78465252,23819
78471451,23816
78477656,23826
78483857,23827
78490055,23829
78496259,23826
78502462,23827
78508669,23827
78514871,23833
78521061,23831
78527225,23831
78533405,23835
78544812,23890
78550986,23896
78557252,23894
78563478,23897
78570339,23902
78576530,23900
78581987,23903
78588151,23903
78594344,23905
78600561,23910
78606801,23899
78613017,23911
78619192,23913
78625384,23917
78630597,23918
78636785,23918
78642942,23917
78649157,23923
78655336,23923
78661519,23928
78666990,23929
78678396,23983
78684558,23977
78690752,23976
78696944,23969
78703199,23964
78709431,23959
78714841,23951
78721059,23951
78727241,23943
78733436,23936
78739695,23925
78745872,23909
78752116,23906
78758280,23895
78764477,23886
78770684,23879
78776898,23868
78783811,23855
78790014,23840
78796185,23832
78801363,23821
78813053,23569
78819221,23564
78825400,23567
78831570,23563
78837784,23564
78844020,23558
78849200,23560
78855395,23566
78861577,23564
78867778,23560
78873972,23557
78880206,23560
78886461,23562
78892661,23562
78898870,23556
78904268,23554
78910429,23559
78916617,23554
78922820,23559
78928989,23554
78935200,23557
78940408,23562
78946606,23616
78952785,23618
78958978,23622
78965223,23615
78971388,23618
78977566,23623
78983824,23623
78990584,23622
78996836,23615
79003098,23620
79009305,23617
79015505,23626
79021694,23618
79027880,23623
79034095,23621
79039533,23625
79045727,23620
79051937,23614
79058130,23618
79064299,23619
79070485,23614
79076703,23614
79088125,23648
79094334,23649
79100535,23656
79106700,23658
79112866,23657
79119038,23666
79124485,23667
79130671,23664
79136881,23668
79143082,23669
79149315,23677
79155516,23673
79161752,23679
79168033,23686
79173224,23686
79179463,23693
79192521,23698
79198787,23699
79205076,23702
79217178,23780
79223379,23785
79229637,23789
79235875,23794
79242098,23794
79248305,23797
79253777,23801
79259992,23804
79266216,23799
79272420,23804
79278659,23803
79284895,23809
79291107,23817
79297373,23813
79302604,23815
79308858,23815
79315056,23823
79321280,23822
79327473,23827
79333701,23832
79339961,23835
79350728,23893
79356946,23893
79363219,23897
79369456,23901
79375731,23900
79381966,23900
79387447,23903
79393632,23905
79399890,23906
79406088,23913
79412335,23914
79418552,23915
79425503,23920
79431767,23917
79436997,23923
79443255,23933
79449443,23929
79455614,23929
79461848,23933
79468053,23941
79474273,23934
79485011,23995
79491257,23993
79497461,23990
79503696,23987
79509914,23947
79516157,23973
79522381,23965
79528626,23960
79534886,23951
79541116,23943
79547329,23936
79553544,23925
79559725,23914
79565962,23908
79571474,23897
79577742,23888
79583977,23879
79590178,23870
79596422,23859
79602649,23842
79608881,23839
79619561,23655
79625822,23654
79632042,23656
79638925,23658
79645085,23656
79651267,23653
79657456,23651
79662670,23646
79668878,23651
79675044,23644
79681269,23655
79687489,23648
79693666,23650
79699898,23653
79706118,23649
79712309,23650
79718470,23652
79724637,23658
79730864,23656
79737020,23655
79743212,23657
79753892,23691
79760088,23694
79766271,23690
79772445,23694
79778641,23690
79784861,23686
79791019,23685
79796439,23683
79802612,23685
79808826,23679
79815047,23682
79821259,23683
79827480,23678
79833725,23675
79839892,23682
79846024,23677
79852212,23678
79858396,23675
79864618,23677
79870816,23679
79877035,23676
79888483,23709
79894646,23706
79900868,23711
79907080,23712
79913295,23713
79919514,23712
79925698,23722
79931153,23722
79937349,23728
79943521,23730
79949761,23734
79955956,23740
79962156,23739
79968369,23742
79974587,23743
79979814,23751
79985997,23756
79992215,23759
79998404,23759
80004564,23767
80010777,23764
80022432,23851
80028580,23854
80034830,23859
80041049,23862
80047222,23859
80053409,23859
80060243,23866
80065426,23867
80071590,23868
80077770,23866
80083963,23872
80090191,23878
80096375,23871
80102582,23873
80108780,23882
80114245,23878
80120434,23881
80126614,23879
80132819,23882
80139014,23882
80145171,23884
80156626,23932
80162089,23939
80168305,23939
80174510,23944
80180741,23943
80186938,23944
80193092,23946
80199246,23951
80204479,23951
80210648,23953
80216842,23961
80223045,23960
80229237,23958
80235426,23962
80241637,23964
80247818,23965
80253222,23958
80259476,23971
80265687,23973
80272487,23973
80278677,23970
80284870,23968
80291077,23801
80296305,23783
80302521,23777
80308735,23764
80314868,23751
80321019,23747
80327210,23735
80333414,23725
80338857,23711
80345055,23706
80351274,23697
80357526,23689
80363709,23679
80369903,23676
80376088,23672
80382291,23658
80387500,23649
80393654,23649
80399888,23644
80406066,23638
80412249,23629
80418493,23635
80424681,23624
80430890,23574
80443705,23574
80449934,23577
80456219,23578
80462394,23583
80467844,23585
80474031,23581
80480221,23583
80487052,23579
80493195,23588
80499390,23583
80505615,23582
80511851,23583
80517059,23592
80523239,23588
80529444,23593
80535612,23585
80541848,23589
80548020,23591
80554226,23596
80565905,23585
80572116,23578
80578277,23581
80584476,23581
80590665,23580
80596864,23573
80602110,23581
80608309,23577
80614511,23576
80620675,23570
80626910,23573
80633123,23576
80639323,23579
80645514,23575
80650962,23578
80657179,23576
80663383,23579
80669551,23581
80675786,23579
80681993,23580
80688212,23581
80700604,23642
80705836,23647
80712029,23649
80718223,23656
80724385,23657
80730535,23660
80735981,23667
80742170,23661
80748336,23664
80754521,23671
80760726,23665
80766933,23672
80773149,23671
80779342,23677
80784544,23673
80790738,23676
80796903,23680
80803101,23680
80809323,23683
80815507,23683
80821696,23688
80833447,23739
80839693,23744
80845905,23742
80852101,23741
80858297,23742
80864485,23746
80870675,23747
80876852,23753
80883060,23753
80889267,23762
80895464,23763
80901715,23769
80908565,23770
80914806,23766
80920364,23774
80926526,23781
80932692,23778
80938904,23784
80945089,23786
80951246,23786
80957446,23796
80968880,23845
80975080,23832
80980552,23827
80986756,23816
80992929,23813
80999110,23798
81004289,23789
81010496,23778
81016703,23765
81022923,23757
81029143,23745
81035377,23745
81041591,23733
81047759,23723
81053917,23709
81060070,23704
81066266,23688
81072416,23680
81078619,23670
81084792,23670
81090915,23655
81102586,23513
81108797,23511
81113994,23505
81120850,23515
81127043,23504
81133288,23508
81139484,23511
81145668,23512
81151891,23502
81158069,23504
81164328,23504
81170533,23501
81176727,23490
81182914,23494
81189155,23496
81194601,23496
81200811,23495
81206985,23492
81213204,23496
81219405,23490
81225604,23497
81237082,23488
81243325,23492
81248824,23489
81255032,23493
81261207,23482
81267389,23490
81273610,23486
81278853,23490
81285026,23487
81291244,23483
81297398,23487
81303599,23480
81309818,23485
81315995,23477
81322230,23478
81328358,23480
81334591,23476
81340781,23474
81346943,23480
81353146,23476
81359340,23472
81370989,23494
81377186,23493
81383413,23500
81389588,23497
81395806,23499
81401983,23502
81408175,23501
81413362,23500
81419550,23507
81425748,23507
81431933,23512
81438125,23514
81444324,23518
81450520,23516
81456715,23520
81462148,23518
81468348,23528
81474573,23525
81480800,23529
81486980,23524
81493155,23536
81499346,23527
81505557,23575
81511778,23572
81517969,23570
81523230,23574
81529447,23572
81535656,23572
81542442,23577
81547951,23580
81554161,23580
81560411,23581
81566625,23576
81572866,23576
81579100,23580
81585330,23586
81591581,23586
81596796,23581
81603025,23583
81609229,23587
81615436,23586
81621710,23585
81627934,23587
81634196,23588
81645941,23583
81652127,23567
81657388,23562
81663552,23551
81669798,23545
81676011,23534
81688814,23523
81695074,23521
81701358,23504
81707587,23498
81713851,23483
81720136,23470
81726362,23468
81732642,23452
81738876,23436
81745099,23430
81751355,23421
81758003,23407
81764289,23397
81776075,23190
81782306,23186
81787798,23187
81794012,23189
81800251,23186
81806457,23183
81812707,23180
81817929,23177
81824147,23180
81830385,23175
81836628,23180
81842898,23180
81849115,23170
81855329,23170
81861581,23172
81867032,23164
81873205,23171
81879353,23172
81885594,23171
81891815,23167
81897990,23169
81909410,23171
81915619,23167
81921081,23175
81927266,23173
81933501,23169
81939695,23163
81945893,23162
81952076,23163
81958250,23169
81964486,23164
81971325,23159
81977572,23155
81983809,23158
81990002,23159
81996235,23155
82001463,23155
82007640,23155
82013864,23156
82020068,23154
82026271,23158
82032490,23152
82044147,23156
82050356,23161
82055592,23166
82061773,23161
82067931,23164
82074134,23165
82080313,23170
82086509,23166
82092701,23167
82098899,23168
82105155,23173
82111347,23176
82117527,23178
82123680,23181
82129895,23183
82135306,23180
82141503,23181
82147629,23187
82153883,23187
82160098,23186
82166278,23193
82177679,23247
82184450,23251
82190622,23247
82196837,23250
82202997,23255
82209254,23252
82215453,23255
82221672,23252
82227106,23256
82233304,23259
82239487,23262
82245692,23258
82251905,23259
82258095,23263
82264238,23268
82269463,23268
82275661,23268
82281850,23270
82288051,23265
82294249,23263
82300448,23273
82312092,23325
82318288,23332
82324483,23325
82330675,23329
82336865,23332
82343077,23326
82349267,23330
82355457,23329
82360652,23322
82366860,23322
82373040,23315
82379257,23313
82385458,23301
82392229,23303
82398441,23299
82403888,23284
82410098,23270
82416242,23268
82422455,23261
82428645,23242
82434845,23242
82446266,22949
82452441,22953
82458619,22941
82464841,22941
82471029,22931
82477259,22932
82483452,22931
82489683,22929
82495141,22926
82501343,22926
82507611,22926
82513822,22922
82520070,22921
82526299,22922
82532585,22925
82538825,22925
82544997,22919
82551234,22920
82557464,22919
82563696,22919
82569931,22916
82581365,22951
82587621,22955
82593901,22949
82599410,22955
82606285,22963
82612532,22958
82618740,22965
82624938,22957
82630164,22965
82636373,22964
82642540,22967
82648707,22967
82654898,22963
82661125,22966
82667323,22964
82673528,22963
82679017,22963
82685206,22966
82691418,22968
82697570,22961
82703804,22966
82715284,22983
82721514,22988
82727773,22988
82733980,22989
82740209,22996
82746430,22998
82752667,22996
82758854,23002
82764327,23009
82770584,23004
82776876,23005
82783070,23013
82789311,23014
82795589,23019
82801799,23018
82808006,23020
82813229,23025
82820122,23021
82826337,23026
82832578,23031
82838883,23033
82850629,23118
82856890,23112
82863104,23116
82868654,23125
82874841,23128
82880999,23129
82887194,23125
82893371,23140
82898615,23138
82904880,23134
82911087,23136
82917345,23140
82923545,23144
82929780,23145
82942200,23144
82948443,23144
82954650,23150
82960896,23154
82967140,23148
82978631,23212
82984903,23217
82991166,23214
82997382,23224
83003601,23224
83009892,23223
83016086,23230
83022323,23226
83028541,23229
83035344,23236
83041633,23237
83047925,23233
83054143,23238
83060385,23240
83066609,23248
83072901,23243
83078399,23179
83084634,23245
83090846,23255
83097059,23255
83103282,23256
83114803,23339
83121066,23346
83127341,23345
83133555,23348
83139060,23350
83145310,23356
83151517,23349
83157748,23349
83162950,23345
83169184,23348
83175376,23342
83181613,23334
83187875,23324
83194138,23319
83200377,23315
83206589,23305
83212068,23298
83218297,23290
83224534,23284
83230769,23271
83236992,23260
83249088,22924
83255329,22917
83261577,22920
83267806,22917
83273255,22912
83279453,22912
83285661,22908
83291910,22910
83297097,22906
83303313,22904
83309462,22907
83315640,22899
83321855,22902
83328112,22900
83334379,22902
83340636,22901
83346171,22891
83352381,22899
83358604,22895
83364817,22899
83370963,22903
83382492,22928
83388747,22932
83394961,22929
83401226,22936
83406731,22934
83412979,22937
83419226,22939
83425470,22942
83431724,22940
83437946,22943
83444209,22940
83450464,22947
83456745,22943
83463655,22945
83469895,22944
83476086,22948
83481277,22950
83487515,22947
83493791,22947
83499994,22950
83506254,22951
83518035,22972
83524286,22971
83530536,22980
83536805,22979
83542268,22980
83548522,22985
83554756,22991
83560985,22979
83567182,22994
83572424,22990
83578621,22997
83584854,23002
83591079,23003
83597308,23005
83603533,23010
83609771,23015
83615225,23018
83621399,23021
83627659,23017
83633911,23025
83640083,23030
83651530,23132
83657772,23132
83664014,23139
83670248,23139
83676332,23141
83682542,23142
83688805,23148
83695009,23149
83701215,23158
83706691,23157
83712927,23154
83719166,23159
83725424,23164
83731662,23166
83737874,23167
83744062,23172
83749303,23175
83755530,23179
83761750,23172
83767984,23180
83774122,23182
83785836,23254
83792052,23254
83798294,23260
83804557,23258
83809751,23267
83816012,23269
83822252,23266
83828463,23270
83834614,23272
83840857,23280
83847027,23278
83853279,23281
83859469,23289
83865730,23289
83871985,23294
83878222,23291
83883713,23299
83890493,23294
83896760,23298
83902986,23299
83909229,23299
83920919,23395
83927163,23403
83933350,23405
83939614,23412
83944840,23410
83951063,23406
83957281,23417
83963470,23426
83969724,23418
83975203,23424
83981436,23429
83987663,23434
83993902,23433
84000110,23435
84006348,23443
84012595,23440
84018822,23447
84024988,23448
84031243,23451
84037496,23452
84043727,23450
84055126,23170
84061358,23162
84067558,23148
84073817,23135
84079275,23126
84085511,23113
84091727,23102
84098597,23090
84104852,23081
84110072,23076
84116277,23070
84122490,23052
84128720,23045
84134965,23039
84141217,23029
84147468,23026
84153679,23018
84159153,23021
84165363,23010
84171606,23007
84177842,23006
84195924,23008
84202207,23005
84208528,23010
84214817,23011
84221064,23014
84227329,23014
84233565,23015
84239038,23021
84245255,23021
84251497,23031
84257737,23030
84263993,23033
84270181,23035
84276409,23044
84282679,23045
84287926,23041
84294191,23049
84300409,23050
84306590,23054
84318927,23078
84325141,23083
84331340,23083
84337589,23084
84343825,23081
84349025,23081
84355279,23083
84361485,23082
84367733,23085
84374021,23081
84380253,23090
84386489,23090
84392738,23090
84398969,23087
84405209,23097
84411425,23094
84417670,23097
84423134,23096
84429440,23098
84435645,23108
84441891,23104
84453342,23226
84459539,23231
84465796,23234
84472069,23239
84478314,23239
84483797,23254
84490037,23252
84496272,23252
84502520,23260
84507728,23255
84513951,23259
84520138,23271
84526366,23270
84533273,23272
84539514,23276
84545748,23283
84551998,23277
84557495,23292
84563748,23293
84569964,23290
84576166,23294
84587610,23378
84593823,23388
84600057,23393
84606328,23384
84612499,23392
84617984,23393
84624167,23400
84630365,23404
84636617,23408
84642851,23409
84649078,23411
84655312,23412
84661509,23413
84667735,23414
84673973,23418
84680200,23421
84686459,23422
84691722,23424
84697964,23428
84704161,23429
84710394,23428
84722011,23527
84728213,23533
84734464,23529
84740697,23532
84747595,23540
84752857,23542
84759087,23541
84765304,23548
84771506,23556
84777709,23560
84783207,23555
84789380,23559
84795622,23563
84801855,23569
84808062,23574
84814308,23568
84820598,23572
84825825,23580
84832104,23583
84838335,23580
84844560,23583
84856276,23639
84862512,23634
84868756,23620
84874929,23615
84881166,23607
84886393,23600
84892605,23585
84898873,23574
84905097,23562
84911355,23551
84916839,23537
84923051,23520
84929260,23507
84935512,23496
84941723,23478
84947974,23461
84954197,23442
84960075,23426
84966320,23411
84972531,23392
84978775,23373
84990466,23053
84996722,23051
85002959,23045
85009196,23052
85015476,23292
85020709,23047
85026918,23033
85033157,23037
85039364,23043
85045596,23037
85051876,23039
85058080,23027
85064298,23035
85070551,23029
85076790,23026
85082988,23054
85089218,23031
85094715,23033
85100975,23032
85107191,23026
85113449,23034
85119654,23081
85125856,23081
85132073,23086
85138298,23086
85144551,23089
85150805,23090
85156076,23085
85162349,23084
85169194,23089
85175464,23094
85181670,23089
85187904,23092
85194144,23094
85200398,23094
85206600,23084
85212867,23098
85219058,23091
85225312,23094
85230818,23094
85237064,23097
85243298,23094
85254791,23137
85261007,23130
85267228,23139
85273450,23139
85279681,23146
85285940,23146
85291450,23152
85297696,23155
85303937,23157
85310158,23161
85316394,23158
85322623,23167
85327872,23174
85334097,23177
85340303,23179
85346515,23186
85352737,23192
85358968,23196
85364487,23197
85370730,23205
85376971,23202
85389064,23316
85395280,23318
85401533,23319
85407781,23327
85414069,23324
85420275,23324
85425770,23331
85432014,23327
85438269,23338
85451153,23333
85457394,23347
85463634,23344
85469850,23345
85476067,23343
85482327,23356
85488589,23356
85493841,23361
85500102,23358
85506377,23366
85518080,23449
85524306,23451
85530522,23448
85536743,23455
85542972,23456
85549199,23460
85554428,23463
85560653,23461
85566926,23464
85573171,23468
85579404,23477
85585643,23475
85591867,23478
85597335,23484
85604249,23485
85610529,23483
85616776,23483
85623002,23496
85628232,23495
85634454,23496
85640658,23498
85652359,23593
85658565,23596
85664818,23594
85670960,23602
85677158,23605
85683339,23612
85688568,23612
85694799,23616
85700988,23621
85707167,23617
85713360,23625
85719615,23625
85725871,23633
85732079,23636
85738291,23631
85744539,23642
85750812,23645
85757074,23647
85762553,23650
85768778,23653
85774986,23658
85786448,23378
85792675,23357
85798914,23338
85805091,23319
85811309,23306
85818218,23293
85823716,23268
85829984,23255
85836194,23242
85842393,23227
85848643,23213
85854900,23200
85861134,23191
85866393,23176
85872608,23162
85878868,23152
85885089,23144
85891339,23138
85896845,23121
85903103,23112
85909295,23113
85920778,23028
85927010,23031
85933214,23026
85939355,23025
85945515,23031
85951760,23033
85958008,23031
85964253,23033
85970472,23035
85976750,23035
85982986,23038
85989231,23036
85995428,23038
86000891,23044
86007097,23041
86013327,23044
86019574,23051
86025785,23053
86031607,23055
86037798,23054
86044048,23064
86055753,23103
86061978,23100
86068142,23108
86074350,23105
86080576,23108
86086793,23107
86092039,23103
86098257,23092
86104480,23107
86110749,23106
86116983,23103
86123282,23108
86129482,23105
86135693,23108
86141948,23107
86148181,23111
86154449,23114
86160690,23115
86166161,23110
86172394,23109
86178661,23113
86190099,23222
86196319,23230
86202511,23232
86208806,23237
86215003,23244
86221197,23243
86226640,23249
86232890,23250
86239093,23254
86245984,23262
86252143,23263
86258361,23270
86264616,23272
86270831,23273
86276022,23279
86282227,23277
86288482,23281
86294709,23284
86300228,23289
86306463,23288
86312724,23300
86324179,23393
86330417,23394
86336644,23402
86342914,23409
86349152,23408
86355360,23410
86361610,23412
86367846,23416
86374086,23426
86380308,23419
86386516,23424
86392750,23424
86398994,23430
86405215,23433
86410729,23427
86416968,23433
86423193,23442
86429440,23444
86434644,23449
86440862,23449
86447098,23457
86459515,23561
86465748,23563
86471950,23567
86478161,23575
86484371,23571
86490605,23577
86496870,23582
86502404,23589
86508648,23584
86514895,23588
86521101,23595
86527331,23600
86533562,23592
86539778,23602
86545011,23600
86551250,23611
86557444,23618
86563679,23612
86569225,23616
86575471,23621
86581695,23630
86593162,23676
86599398,23661
86605608,23657
86611829,23642
86618019,23628
86624268,23624
86630505,23616
86635983,23598
86642193,23584
86648449,23569
86654684,23555
86660888,23539
86667796,23521
86674012,23508
86679252,23495
86685459,23479
86691698,23458
86704809,23442
86711141,23424
86722663,23107
86728927,23105
86735167,23099
86741380,23099
86747634,23101
86753882,23098
86760085,23099
86765604,23101
86771856,23101
86778099,23097
86784332,23094
86790567,23096
86796776,23099
86803002,23097
86808195,23090
86814427,23098
86820638,23096
86826877,23099
86833108,23095
86838615,23096
86844832,23101
86856311,23157
86862515,23156
86868765,23155
86874999,23158
86881212,23159
86888064,23157
86894276,23160
86899793,23161
86906010,23158
86912250,23159
86918506,23161
86924776,23163
86931005,23162
86937224,23162
86942463,23161
86948675,23160
86954899,23159
86961108,23159
86967350,23155
86972805,23160
86979059,23164
86990481,23189
86996704,23194
87002909,23192
87009131,23201
87015339,23205
87021538,23206
87027769,23210
87034023,23209
87040261,23213
87046479,23220
87052720,23222
87058967,23157
87065205,23226
87071399,23227
87077577,23230
87083823,23242
87090024,23240
87096893,23244
87103198,23246
87108677,23251
87114931,23255
87126383,23348
87132588,23355
87138816,23351
87144965,23355
87151214,23360
87157452,23362
87163642,23363
87169918,23365
87175454,23373
87181689,23375
87187952,23375
87194164,23377
87200384,23378
87206608,23380
87211864,23386
87218111,23391
87224335,23389
87230588,23396
87236796,23400
87242299,23395
87248561,23400
87260094,23486
87266331,23492
87272554,23489
87278770,23494
87285036,23504
87291254,23504
87297491,23505
87303747,23507
87309274,23506
87316181,23505
87322361,23510
87328584,23521
87334834,23525
87341044,23520
87346259,23523
87352450,23533
87358646,23535
87364890,23529
87371142,23535
87376635,23547
87382867,23540
87394267,23600
87400469,23594
87406698,23592
87412928,23581
87419123,23576
87425314,23560
87431489,23549
87437721,23531
87443237,23519
87449457,23509
87455724,23498
87461956,23477
87468185,23473
87474403,23447
87480648,23436
87486910,23416
87493109,23404
87499343,23385
87505618,23370
87510859,23358
87517103,23338
87529506,23010
87535795,23005
87542026,23000
87548256,22997
87554425,23001
87560615,22997
87566850,22990
87573110,23000
87578598,22985
87584865,22986
87591086,22987
87597316,22983
87603599,22982
87609814,22979
87616046,22977
87621252,22982
87627477,22980
87633707,22982
87639986,22981
87645485,22975
87651683,22987
87663194,23036
87669452,23029
87675617,23028
87681894,23033
87688125,23032
87694337,23035
87700539,23027
87706764,23031
87712274,23027
87718549,23031
87724812,23029
87731024,23024
87737752,23029
87743968,23025
87750134,23029
87755354,23021
87761599,23024
87767844,23023
87774022,23019
87780231,23017
87786459,23016
87798161,23053
87804411,23057
87810659,23060
87816876,23062
87823094,23064
87829293,23065
87835534,23073
87841740,23078
87846954,23079
87853183,23083
87859411,23078
87865644,23087
87871892,23090
87878159,23095
87884355,23103
87889794,23103
87895999,23106
87902241,23110
87908490,23115
87914766,23116
87920018,23123
87931680,23228
87937919,23233
87944047,23234
87957561,23242
87963817,23241
87970048,23240
87976223,23244
87982465,23250
87988668,23250
87994914,23249
88001119,23249
88007316,23263
88013491,23262
88018686,23259
88024900,23170
88031094,23259
88037302,23266
88043517,23269
88048999,23270
88055196,23276
88061320,23355
88067593,23358
88073839,23353
88080076,23359
88086290,23364
88092491,23369
88098726,23372
88104980,23369
88111189,23378
88116370,23375
88122616,23381
88128907,23383
88135093,23388
88141355,23389
88147598,23394
88153825,23391
88160020,23401
88166878,23397
88173175,23401
88179450,23406
88184959,23412
88196402,23133
88202637,23115
88208865,23105
88215099,23087
88221318,23074
88227499,23066
88233721,23047
88239915,23039
88246140,23030
88251625,23021
88257860,23006
88264079,22990
88270285,22977
88276490,22975
88282650,22965
88288886,22956
88294115,22942
88300345,22944
88306545,22932
88312762,22925
88318262,22923
88329778,22921
88336039,22925
88342238,22920
88348473,22926
88354644,22934
88360912,22938
88367141,22938
88373329,22940
88380095,22950
88385661,22946
88391920,22949
88398164,22956
88404364,22953
88410569,22964
88416780,22967
88423014,22964
88428231,22969
88434468,22977
88440697,22977
88446930,22984
88453161,22989
88464858,23009
88471096,23012
88477351,23008
88483606,23011
88489827,23017
88496059,23006
88502260,23007
88508456,23006
88514694,23014
88519935,23012
88526100,23015
88532337,23017
88538548,23021
88544801,23015
88551017,23016
88557243,23018
88562759,23022
88568973,23026
88575213,23023
88581436,23029
88587635,23030
88599795,23141
88606049,23143
88612312,23149
88618518,23147
88624787,23154
88631018,23158
88637261,23167
88643455,23170
88649660,23175
88655154,23170
88661308,23178
88667497,23178
88673664,23187
88679887,23189
88686089,23183
88692269,23205
88697489,23198
88703668,23206
88709873,23203
88716069,23214
88722278,23216
88733199,23307
88739372,23303
88745584,23303
88751788,23310
88757988,23309
88764184,23317
88770419,23314
88776627,23318
88782884,23316
88788103,23321
88794307,23325
88800536,23332
88807356,23332
88813555,23329
88819710,23337
88825932,23337
88831378,23339
88837552,23335
88843755,23344
88849977,23349
88856151,23352
88861370,23348
88867585,23414
88873737,23414
88879931,23414
88886121,23410
88892341,23403
88898516,23396
88904680,23383
88910872,23383
88917051,23363
88922512,23355
88928655,23355
88934885,23334
88941089,23318
88947268,23311
88953459,23296
88959602,23267
88965819,23255
88972052,23243
88978215,23229
88984396,23214
88990582,23193
88995774,23177
89007383,22831
89013568,22834
89020415,22826
89026613,22826
89032797,22824
89038985,22819
89045173,22822
89051370,22825
89057544,22825
89063751,22825
89069959,22824
89076116,22822
89082282,22823
89088465,22822
89094636,22824
89100836,22827
89106027,22828
89112251,22828
89118418,22827
89124645,22829
89130867,22825
89142508,22903
89148737,22903
89154940,22908
89161137,22906
89167320,22912
89173534,22909
89179745,22916
89185974,22912
89192204,22912
89204245,22918
89210459,22920
89216778,22919
89222986,22920
89229214,22923
89235080,22927
89241320,22924
89247524,22925
89253733,22925
89259964,22929
89270931,23004
89277135,23005
89283344,23013
89289546,23016
89295733,23020
89301962,23025
89308128,23029
89314290,23033
89320463,23039
89326636,23037
89332869,23047
89339100,23056
89345311,23061
89351545,23058
89357762,23071
89363942,23071
89370127,23077
89376319,23080
89382483,23080
89388651,23094
89394921,23093
89405697,23204
89411938,23201
89418127,23209
89424341,23209
89430562,23216
89436757,23211
89443546,23214
89449720,23214
89455915,23219
89462108,23216
89467561,23219
89473767,23231
89479968,23227
89486191,23233
89492344,23236
89498546,23229
89504769,23233
89510027,23240
89516235,23236
89522435,23241
89528586,23243
89539426,23299
89545605,23309
89551839,23303
89558052,23313
89564221,23315
89570380,23313
89576559,23315
89582766,23320
89588948,23324
89595152,23324
89600376,23324
89606584,23328
89612750,23340
89618967,23341
89625126,23334
89631367,23342
89637544,23346
89643732,23345
89649915,23345
89656712,23350
89662891,23354
89674493,23046
89680671,23022
89686924,23003
89693083,22995
89699235,22974
89705394,22957
89711573,22942
89717789,22932
89723984,22915
89730217,22904
89735442,22886
89741634,22879
89747805,22863
89753992,22850
89760207,22841
89766412,22827
89772622,22828
89778820,22818
89784223,22809
89790446,22797
89796623,22794
89808034,22753
89814247,22754
89820479,22752
89826666,22752
89832856,22754
89839033,22759
89845225,22760
89851395,22760
89857603,22763
89864438,22766
89869902,22769
89876101,22773
89882324,22778
89888540,22784
89894735,22784
89900935,22792
89907146,22787
89913352,22792
89918589,22800
89924811,22809
89930965,22810
89942627,22884
89947834,22884
89954015,22890
89960217,22885
89966405,22888
89972617,22894
89978813,22894
89985043,22893
89991283,22891
89997495,22892
90003743,22894
90009958,22898
90016172,22902
90022381,22898
90028569,22904
90034731,22909
90040910,22911
90047139,22907
90052595,22905
90058794,22909
90065015,22916
90071253,22912
90078095,23024
90083300,23022
90089511,23028
90095687,23029
90101835,23039
90108001,23039
90114202,23046
90120399,23043
90126590,23047
90132854,23051
90139025,23057
90144441,23060
90150619,23058
90156865,23063
90163053,23070
90169249,23069
90175442,23074
90181601,23078
90186795,23070
90192973,23084
90199209,23089
90205440,23093
90217126,23185
90223301,23186
90229489,23190
90235695,23194
90241899,23203
90248074,23196
90254284,23196
90260520,23208
90266783,23213
90273030,23219
90278587,23215
90285469,23215
90291676,23223
90297912,23222
90304077,23222
90310286,23228
90316534,23233
90321772,23231
90327972,23238
90334213,23241
90340453,23238
90352100,23343
90357316,23348
90363466,23352
90369671,23361
90375915,23362
90382118,23355
90388377,23360
90394583,23371
90400828,23375
90407060,23379
90412556,23374
90418790,23382
90425021,23383
90431241,23385
90437504,23389
90450295,23392
90455795,23398
90462077,23393
90468335,23398
90474545,23398
90480798,22948
90486042,22929
90492258,22916
90498487,22894
90505336,22890
90511558,22873
90517786,22854
90524022,22848
90530251,22837
90536470,22826
90541968,22817
90548219,22805
90554437,22801
90560626,22793
90566834,22784
90573033,22769
90579271,22767
90585530,22763
90591756,22757
90597988,22749
90604220,22747
90615655,22717
90621182,22726
90627383,22728
90633625,22731
90639862,22732
90646025,22736
90652218,22740
90658399,22748
90664593,22747
90670813,22747
90676994,22756
90683219,22751
90689416,22754
90695627,22762
90701870,22760
90708052,22764
90714889,22765
90721108,22771
90726290,22777
90732492,22771
90738671,22777
90750331,22791
90755563,22788
90761742,22787
90767937,22788
90774092,22783
90780340,22788
90786527,22793
90792767,22791
90798962,22798
90805150,22791
90811364,22796
90816845,22795
90823051,22792
90829257,22802
90835463,22805
90841654,22799
90847890,22813
90854083,22814
90860284,22816
90866492,22811
90872678,22818
90884113,22931
90889589,22935
90895792,22934
90901969,22943
90908141,22939
90914342,22947
90920567,22954
90927404,22957
90933630,22957
90939889,22966
90946103,22969
90951692,22968
90957903,22973
90964096,22972
90970279,22980
90976500,22986
90982670,22987
90988910,22990
90994100,22992
91000322,22991
91006576,22991
91018219,23067
91024406,23076
91030650,23066
91036881,23076
91043093,23073
91049300,23085
91055467,23083
91061652,23083
91067901,23084
91074132,23092
91080308,23088
91085501,23091
91091684,23093
91097927,23102
91104124,23096
91110312,23100
91116514,23101
91122692,23106
91128874,23110
91135685,23106
91141958,23118
91153611,23195
91159846,23200
91165047,23201
91171241,23203
91177459,23198
91183654,23194
91189836,23192
91196041,23189
91202239,23189
91208448,23178
91214650,23172
91220112,23160
91226324,23161
91232511,23149
91238666,23131
91244884,23119
91251088,23115
91257272,23095
91263475,23078
91268703,23070
91274880,23053
91281125,23035
91287339,22641
91293556,22643
91298963,22640
91305156,22635
91311339,22638
91317517,22631
91323682,22636
91329895,22636
91336122,22627
91342281,22634
91349015,22636
91354248,22631
91360445,22632
91366706,22638
91372928,22635
91379088,22630
91385309,22633
91391493,22641
91397621,22643
91403078,22646
91409276,22644
91415503,22642
91421716,22738
91427900,22743
91433127,22739
91439317,22744
91445516,22746
91451678,22746
91457866,22746
91464075,22746
91470352,22747
91476470,22749
91482644,22746
91488845,22745
91495007,22750
91501216,22747
91507412,22743
91513604,22749
91519804,22751
91525984,22747
91532209,22744
91537669,22744
91543932,22747
91550156,22742
91562524,22762
91567744,22768
91573933,22738
91580101,22768
91586314,22774
91592508,22775
91598695,22774
91604945,22771
91611123,22783
91617342,22782
91623566,22792
91629033,22795
91635222,22791
91641420,22800
91647579,22803
91653838,22802
91660017,22806
91666216,22815
91672401,22813
91678597,22827
91684817,22823
91702815,22918
91709025,22921
91715295,22923
91721532,22925
91727677,22925
91733864,22931
91740043,22930
91746237,22933
91752416,22928
91758611,22931
91764838,22937
91771016,22938
91777855,22940
91784080,22944
91790316,22942
91796486,22939
91802716,22948
91808203,22952
91814431,22951
91825856,23022
91832039,23019
91837513,23019
91843709,23022
91849892,23018
91856096,23011
91862261,23018
91868470,23015
91874715,23011
91880916,23005
91887138,22996
91893378,22989
91898610,22984
91904821,22972
91910976,22964
91917092,22951
91923314,22947
91929508,22934
91935698,22917
91941172,22908
91947384,22895
91958841,22566
91965067,22559
91970574,22562
91976784,22565
91982978,22566
91989817,22555
91996010,22557
92002207,22567
92008416,22563
92014618,22559
92020847,22557
92027050,22560
92032287,22569
92038488,22564
92044669,22563
92050883,22573
92057046,22573
92063250,22576
92069439,22574
92075660,22574
92081871,22589
92093538,22660
92099716,22663
92105954,22665
92112137,22661
92118330,22661
92124501,22663
92130650,22657
92136843,22658
92143043,22659
92149236,22664
92155446,22661
92161726,22659
92166924,22662
92173186,22654
92179440,22653
92185642,22658
92191887,22657
92198750,22652
92205035,22653
92211279,22652
92216768,22640
92228213,22669
92234487,22675
92240741,22668
92246228,22684
92252408,22682
92258615,22687
92264816,22690
92271046,22692
92277279,22691
92283547,22697
92289806,22700
92296030,22711
92301267,22709
92307531,22708
92313724,22717
92319957,22712
92326125,22720
92332333,22726
92338523,22729
92344760,22727
92350220,22732
92356496,22739
92362732,22832
92368975,22834
92375211,22836
92380477,22837
92386716,22837
92392950,22843
92399197,22848
92405463,22852
92412306,22852
92418623,22855
92424856,22855
92431108,22858
92436600,22855
92442826,22862
92449047,22859
92455272,22867
92461524,22869
92467785,22867
92474042,22875
92480300,22876
92485572,22879
92497340,22828
92503583,22818
92509816,22797
92515055,22785
92521294,22771
92527515,22758
92533743,22737
92539973,22723
92546209,22700
92552422,22687
92558624,22671
92564819,22649
92570291,22631
92576540,22617
92582737,22601
92588944,22585
92595141,22569
92601385,22554
92607622,22541
92613831,22531
92619097,22509
92631501,22378
92637725,22377
92643954,22381
92649446,22376
92655681,22384
92661840,22385
92668117,22388
92674350,22388
92680585,22389
92686824,22390
92693038,22398
92699283,22391
92705517,22394
92711766,22406
92717985,22402
92724207,22405
92730450,22401
92736690,22409
92742933,22416
92749131,22419
92754395,22421
92766192,22516
92772423,22514
92778719,22516
92784230,22519
92790463,22511
92796707,22514
92802899,22515
92809127,22513
92815359,22517
92821633,22519
92827856,22528
92834058,22517
92839905,22522
92846131,22526
92852332,22526
92858541,22520
92864758,22518
92870991,22522
92877197,22522
92883405,22529
92888847,22525
92900341,22616
92906574,22618
92912809,22624
92918289,22625
92924518,22624
92930743,22633
92936977,22642
92943157,22647
92955987,22645
92962250,22653
92968500,22653
92973699,22656
92979936,22665
92986140,22667
92992382,22674
92998598,22676
93004869,22680
93011112,22684
93017368,22689
93029123,22792
93035374,22796
93041645,22798
93046876,22801
93053126,22804
93060004,22810
93066229,22808
93072453,22809
93078624,22815
93084882,22822
93091080,22819
93097323,22820
93103545,22823
93109829,22835
93116046,22832
93122273,22837
93128447,22837
93134634,22841
93140859,22845
93147069,22851
93153326,22849
93164079,22908
93170295,22897
93176521,22884
93182008,22879
93188232,22876
93194370,22856
93200567,22839
93206738,22827
93212954,22812
93219153,22798
93225398,22778
93231603,22759
93237843,22745
93243059,22730
93249287,22710
93255528,22697
93261679,22673
93268402,22662
93274656,22640
93280854,22624
93287041,22602
93297684,22314
93303909,22307
93310128,22304
93316339,22315
93322531,22309
93328682,22305
93334819,22298
93341019,22307
93347166,22308
93353368,22307
93359600,22306
93365817,22302
93372005,22312
93377410,22303
93383589,22308
93389803,22313
93396005,22306
93402215,22303
93408401,22303
93414618,22310
93420818,22312
93432237,22416
93438445,22411
93444652,22411
93450833,22420
93457012,22421
93463221,22418
93469468,22420
93475653,22431
93482485,22429
93488671,22432
93494891,22431
93501062,22432
93507254,22439
93512709,22434
93518920,22437
93525123,22434
93531317,22442
93537528,22440
93543695,22436
93549916,22442
93556096,22439
93566864,22503
93573099,22508
93579318,22518
93585496,22515
93590943,22517
93597164,22518
93603335,22526
93609499,22528
93615693,22531
93621907,22542
93628119,22546
93634315,22546
93640519,22554
93646714,22559
93652919,22556
93659107,22562
93665317,22562
93671530,22569
93677706,22579
93683968,22575
93690852,22587
93701611,22680
93707826,22682
93714026,22690
93720265,22693
93725672,22690
93731895,22691
93738099,22692
93744268,22700
93750457,22709
93756671,22702
93762904,22703
93769112,22709
93775267,22711
93781467,22714
93786699,22718
93792928,22721
93799110,22724
93805339,22726
93811512,22725
93817716,22727
93823917,22733
93835542,22801
93841721,22805
93847936,22807
93854136,22819
93859353,22802
93865563,22815
93871775,22821
93877967,22818
93884139,22823
93890352,22823
93896568,22830
93903368,22828
93909520,22835
93915733,22834
93921194,22844
93927368,22841
93933573,22850
93939814,22852
93946017,22849
93952230,22862
93958457,22866
93969932,22760
93976160,22740
93982406,22718
93988635,22711
93994094,22685
94000286,22666
94006488,22642
94012695,22624
94018899,22607
94025130,22585
94031392,22567
94037649,22547
94043928,22527
94050189,22509
94055741,22496
94062011,22480
94068224,22458
94074407,22442
94080649,22425
94086890,22408
94093118,22397
94104549,22269
94110052,22274
94116795,22273
94123006,22274
94128222,22269
94134428,22274
94140636,22277
94146863,22277
94153022,22278
94159259,22281
94165469,22282
94171712,22275
94177918,22281
94184112,22284
94190342,22285
94203181,22292
94209412,22283
94215707,22291
94221904,22292
94228075,22300
94234307,22408
94239794,22401
94245993,22404
94252285,22413
94258462,22404
94264691,22413
94270949,22416
94277154,22417
94283317,22413
94289469,22411
94295648,22415
94301853,22413
94308048,22416
94314212,22413
94320404,22421
94325648,22414
94332513,22422
94338671,22422
94344851,22420
94351084,22416
94357272,22421
94368967,22494
94374195,22499
94380420,22506
94386601,22514
94392794,22518
94398246,22517
94404413,22517
94410588,22526
94416774,22529
94422923,22531
94429139,22536
94435370,22540
94441597,22550
94447791,22552
94454006,22558
94459207,22558
94465424,22562
94471610,22564
94477752,22561
94483974,22576
94490150,22578
94496367,22579
94502578,22665
94508063,22675
94514274,22677
94520454,22675
94526614,22679
94531830,22682
94538030,22688
94544873,22685
94551067,22690
94557274,22700
94563453,22695
94569666,22702
94575872,22708
94582058,22701
94588275,22713
94593702,22712
94599926,22715
94606146,22720
94612316,22727
94618547,22728
94624799,22732
94631006,22738
94642421,22858
94648659,22867
94654839,22867
94661037,22871
94666529,22874
94672706,22877
94678963,22879
94685143,22883
94691347,22889
94697533,22884
94703748,22895
94709986,22894
94716211,22899
94722422,22906
94728619,22913
94734780,22906
94741003,22912
94747207,22922
94754052,22925
94760276,22912
94766474,22926
94777894,23013
94783315,23021
94789506,23026
94795687,23026
94800893,23031
94807053,23031
94813231,23032
94819414,23040
94825652,23039
94831856,23046
94838034,23046
94844268,23045
94850474,23051
94856658,23056
94862873,23059
94868289,23054
94874440,23059
94880603,23066
94886808,23064
94892992,23067
94899224,23068
94910657,23136
94916883,23126
94923109,23123
94929361,23113
94935532,23100
94941674,23098
94947843,23079
94953997,23076
94960126,23058
94966989,23045
94973206,23031
94979407,23004
94985612,22993
94991813,22972
94997993,22953
95003506,22927
95009682,22911
95015904,22894
95022083,22872
95028299,22854
95034464,22827
95045833,22466
95052062,22462
95057535,22472
95063779,22467
95070016,22466
95075230,22459
95081487,22462
95087724,22467
95093967,22466
95100206,22464
95106437,22467
95112685,22469
95118908,22468
95125131,22474
95131369,22475
95136852,22473
95143080,22475
95149314,22475
95155547,22470
95161770,22473
95167976,22476
95174222,22478
95181045,22557
95187269,22562
95192485,22559
95198721,22558
95204939,22557
95210396,22564
95216643,22562
95222854,22558
95229071,22562
95235325,22561
95241597,22559
95247818,22556
95254052,22560
95260288,22554
95266550,22562
95271758,22555
95278003,22553
95284238,22553
95290480,22556
95296709,22550
95302952,22562
95309195,22555
95320897,22592
95326115,22596
95332342,22603
95338573,22600
95344000,22599
95350188,22611
95356350,22607
95362519,22621
95368698,22622
95374927,22627
95381101,22626
95387283,22629
95394055,22633
95400286,22638
95406503,22641
95412702,22646
95418913,22650
95425097,22649
95431325,22655
95437564,22667
95450347,22751
95455579,22749
95461817,22754
95468037,22752
95473508,22757
95479692,22754
95485923,22754
95492121,22753
95498299,22752
95504527,22756
95510722,22748
95516954,22760
95523176,22763
95529365,22760
95535574,22764
95541807,22757
95547999,22761
95554187,22761
95560359,22768
95566557,22762
95572750,22764
95578951,22768
95585173,22796
95590431,22800
95596655,22808
95602829,22807
95608905,22813
95615130,22809
95621340,22817
95627493,22821
95633651,22828
95639865,22820
95646043,22828
95652264,22835
95658438,22830
95664590,22830
95670822,22841
95676014,22846
95682215,22851
95688404,22849
95694585,22847
95700738,22856
95706963,22855
95713148,22864
95719422,22871
95724954,22969
95731156,22963
95737349,22970
95742810,22967
95749023,22977
95755217,22978
95761407,22966
95767608,22960
95773827,22965
95780025,22958
95786256,22945
95792468,22940
95798588,22930
95804869,22927
95810080,22912
95816890,22899
95823177,22888
95829376,22875
95835567,22863
95841747,22850
95848031,22829
95854281,22808
95864965,22373
95871184,22365
95877361,22356
95883572,22352
95889794,22359
95896029,22349
95902235,22352
95908450,22352
95914636,22353
95920872,22349
95927090,22352
95933316,22351
95939544,22350
95945060,22356
95951274,22354
95957502,22355
95963735,22353
95969957,22354
95976182,22356
95982441,22358
95988711,22368
95999474,22458
96005660,22464
96011879,22467
96017374,22473
96023594,22470
96030404,22477
96036575,22474
96042731,22474
96048962,22476
96055164,22483
96061371,22483
96067556,22380
96073753,22490
96078949,22485
96085104,22496
96091342,22488
96097531,22489
96103682,22487
96109908,22495
96116132,22493
96122331,22486
96127760,22421
96133992,22498
96140205,22502
96146374,22512
96151592,22510
96157752,22512
96163931,22516
96170118,22521
96176331,22523
96182492,22521
96188690,22527
96194889,22530
96201037,22529
96207246,22535
96213427,22538
96219648,22546
96225814,22546
96232011,22544
96238875,22544
96245115,22554
96251387,22566
96257617,22564
96268309,22681
96274507,22681
96280647,22679
96286042,22687
96292244,22689
96298415,22690
96304594,22693
96310826,22700
96317010,22696
96323206,22708
96329412,22715
96335629,22716
96341894,22719
96348064,22729
96353261,22729
96359431,22738
96365616,22744
96371766,22753
96377980,22754
96384182,22758
96390400,22771
96396644,22769
96402834,22986
96409026,22991
96415194,22995
96420619,22999
96426822,23001
96433011,23004
96439211,23008
96445423,23008
96452198,23013
96458400,23018
96464628,23026
96470846,23021
96477060,23025
96483269,23026
96488463,23032
96494700,23038
96500899,23040
96507142,23042
96513387,23047
96519621,23049
96525787,23055
96536453,23105
96542676,23104
96548864,23095
96555028,23079
96561177,23063
96567394,23058
96573619,23042
96579817,23023
96586050,23007
96592239,22994
96598454,22976
96604633,22969
96610825,22938
96617008,22928
96622492,22905
96628659,22882
96634865,22855
96641034,22849
96647215,22825
96653431,22806
96659631,22782
96671028,22454
96677192,22460
96683438,22447
96689668,22452
96702673,22445
96708965,22446
96715188,22447
96721413,22443
96727631,22442
96733847,22440
96740060,22438
96746283,22436
96751481,22429
96757696,22432
96763884,22429
96770054,22428
96776291,22429
96782524,22427
96788695,22429
96794872,22423
96801070,22465
96807283,22471
96813469,22471
96819658,22482
96825886,22472
96831287,22474
96837447,22472
96843637,22474
96849822,22471
96856041,22474
96862254,22479
96868442,22478
96874632,22477
96881508,22482
96886731,22485
96892974,22482
96899148,22479
96905337,22480
96911519,22488
96917697,22482
96923899,22474
96930098,22480
96940726,22518
96946927,22521
96953078,22527
96959266,22530
96964722,22535
96970961,22533
96977149,22544
96983362,22540
96989538,22544
96995718,22555
97001955,22548
97008109,22556
97014312,22559
97020509,22566
97026685,22565
97032920,22564
97039060,22565
97045264,22572
97051428,22572
97057653,22570
97063857,22582
97075278,22680
97081494,22684
97088306,22694
97094532,22696
97100016,22696
97106206,22698
97112386,22697
97118587,22703
97124871,22706
97131073,22707
97137293,22713
97143484,22717
97149663,22719
97155871,22726
97161053,22722
97167250,22727
97173438,22736
97179599,22733
97185833,22732
97192022,22740
97198240,22754
97208908,22833
97215147,22840
97221376,22839
97227592,22847
97233070,22843
97239186,22849
97245477,22856
97251743,22851
97257988,22857
97264292,22862
97270556,22861
97276764,22866
97283031,22869
97289209,22872
97294747,22880
97301628,22882
97307885,22882
97314125,22888
97320378,22890
97326600,22897
97332853,22901
97343678,22673
97349924,22657
97356110,22637
97362327,22607
97367787,22596
97374003,22575
97380224,22559
97386486,22532
97392755,22517
97399019,22497
97405208,22480
97411402,22463
97417641,22445
97423835,22424
97429059,22415
97435278,22398
97441432,22389
97447657,22375
97453927,22361
97460164,22350
97466396,22341
97477109,22240
97483350,22253
97489605,22252
97495866,22248
97502070,22248
97508306,22252
97515166,22251
97521431,22253
97527658,22252
97533862,22256
97540050,22253
97546325,22257
97552545,22259
97558788,22260
97564247,22260
97570464,22256
97576649,22259
97582890,22267
97589103,22268
97595351,22274
97601588,22279
97612419,22410
97618649,22417
97624894,22417
97631091,22423
97637306,22427
97642770,22431
97648995,22431
97655200,22431
97661379,22433
97667559,22435
97673821,22438
97680089,22433
97686298,22445
97692568,22445
97698785,22441
97705047,22449
97711253,22450
97717453,22456
97724369,22454
97730618,22456
97736857,22454
97748325,22563
97754570,22565
97760757,22561
97766968,22572
97773180,22572
97779407,22582
97785629,22583
97791903,22586
97798148,22596
97804380,22601
97810619,22599
97816887,22600
97823091,22597
97829323,22611
97835550,22611
97841809,22619
97848057,22621
97854305,22625
97860580,22632
97866849,22626
97878568,22721
97883858,22717
97890065,22725
97896289,22719
97902527,22723
97908741,22732
97914220,22728
97920468,22727
97926724,22734
97932939,22738
97939768,22743
97952615,22737
97958881,22740
97965104,22755
97970589,22746
97976771,22756
97982977,22761
97989190,22759
97995379,22763
98001665,22761
98007886,22859
98013089,22863
98019341,22860
98025526,22867
98031741,22871
98037914,22874
98043403,22879
98049584,22881
98055778,22887
98062019,22890
98068244,22897
98074427,22901
98080653,22900
98086841,22900
98093030,22912
98099252,22906
98104479,22907
98110658,22917
98116843,22916
98123015,22916
98129232,22918
98135470,22914
98146177,22510
98152997,22499
98159275,22478
98165483,22480
98171686,22460
98177082,22453
98183281,22444
98189472,22432
98195748,22431
98201983,22420
98208218,22412
98214453,22408
98220689,22400
98226934,22394
98233151,22390
98239398,22389
98245645,22385
98251868,22376
98258103,22371
98264324,22373
98270575,22376
98281362,22391
98287572,22396
98293794,22404
98299966,22406
98306182,22405
98311665,22415
98317918,22418
98324093,22416
98330285,22423
98336530,22430
98342642,22437
98348902,22437
98355129,22447
98361382,22447
98368216,22451
98374393,22458
98379581,22459
98385849,22458
98392117,22463
98398380,22469
98404612,22474
98415372,22540
98421579,22541
98427765,22542
98434035,22547
98440245,22547
98445742,22547
98451997,22542
98458189,22546
98464432,22551
98470675,22550
98476913,22550
98483151,22555
98489342,22559
98495597,22559
98501857,22560
98508049,22568
98513272,22566
98519488,22566
98525700,22574
98531943,22579
98538209,22579
98544405,22583
98555140,22711
98561373,22712
98567615,22717
98573878,22718
98580731,22725
98586962,22725
98593171,22738
98599413,22742
98605635,22741
98611936,22740
98618173,22741
98624406,22754
98630627,22750
98636888,22750
98643062,22755
98648531,22771
98654762,22766
98660991,22758
98667213,22768
98673406,22772
98684884,22870
98691051,22871
98697278,22876
98703511,22880
98709741,22884
98715970,22885
98721438,22885
98727689,22891
98733950,22895
98740207,22896
98746448,22896
98752703,22903
98758928,22907
98765150,22908
98771379,22914
98777642,22913
98782894,22917
98789723,22920
98795983,22929
98802248,22931
98808503,22931
98819188,23108
98825428,23118
98831667,23115
98837900,23131
98844163,23127
98850398,23142
98855868,23143
98862100,23151
98868374,23150
98874628,23158
98880875,23165
98887097,23167
98893323,23173
98899494,23181
98905745,23180
98911980,23181
98917151,23184
98923356,23192
98929564,23202
98935816,23213
98942077,23207
98953836,22986
98960059,22966
98966309,22941
98972502,22927
98978727,22912
98984947,22889
98990147,22879
98996344,22855
99003196,22839
99009444,22826
99015664,22809
99021956,22793
99028199,22776
99034448,22763
99040645,22749
99046871,22738
99052341,22729
99058483,22718
99064752,22705
99071000,22700
99077207,22688
99088020,22602
99094257,22602
99100486,22602
99106686,22609
99112950,22608
99119167,22606
99124647,22610
99130888,22610
99137072,22614
99143319,22617
99149543,22613
99155743,22618
99162011,22617
99168237,22625
99174485,22626
99180717,22630
99185947,22629
99192200,22634
99205012,22638
99211305,22638
99217625,22708
99224516,22707
99230721,22708
99236914,22711
99243126,22712
99249367,22711
99254800,22707
99261010,22712
99267234,22709
99273439,22717
99279706,22710
99285954,22705
99292211,22711
99298452,22715
99304649,22715
99310916,22710
99316135,22717
99322380,22718
99328587,22713
99334826,22716
99340982,22717
99347172,22717
99357883,22803
99364088,22808
99370295,22809
99376508,22817
99382759,22818
99388212,22821
99394400,22825
99400648,22830
99406899,22832
99413083,22830
99419341,22834
99425551,22841
99431770,22836
99438642,22848
99444817,22846
99450030,22855
99456281,22852
99462500,22860
99468729,22856
99474976,22866
99481204,22870
99491967,22950
99498174,22954
99504404,22952
99510631,22961
99516859,22880
99522318,22957
99528539,22961
99534745,22964
99540990,22966
99547235,22973
99553441,22966
99559711,22974
99566008,22974
99572216,22981
99578432,22980
99584657,22985
99590852,22982
99597076,22989
99603265,22986
99609430,22998
99615632,22995
99626446,23082
99632667,23078
99638843,23086
99645659,23097
99651890,23100
99657330,23092
99663505,23099
99669676,23103
99675891,23108
99682122,23109
99688298,23112
99694498,23114
99700705,23118
99706955,23118
99713144,23118
99719346,23134
99724530,23136
99730666,23133
99736879,23142
99743004,23145
99749184,23143
99760870,23048
99767056,23029
99773254,23015
99779402,23005
99785605,22984
99791791,22973
99798001,22957
99804173,22943
99810347,22926
99816524,22909
99822743,22898
99829000,22883
99835204,22871
99841449,22862
99847690,22846
99853902,22831
99860078,22822
99866288,22811
99872545,22798
99878777,22786
99885025,22783
99896454,22740
99901941,22747
99908172,22742
99914410,22749
99920661,22749
99925872,22759
99932140,22760
99938343,22762
99944577,22764
99950803,22763
99957068,22763
99963261,22776
99969486,22771
99975713,22777
99981946,22776
99988194,22783
99993710,22787
99999902,22796
100006114,22795
100012388,22799
100018650,22804
100030079,22861
100035510,22866
100041731,22867
100047958,22865
100054183,22866
100060348,22858
100066535,22866
100073285,22858
100079499,22850
100085734,22861
100091959,22855
100098174,22856
100104363,22852
100110574,22853
100116774,22855
100122999,22858
100128167,22850
100134398,22856
100140624,22856
100146804,22859
100152999,22853
100164617,22923
100169817,22929
100176021,22926
100182206,22930
100188420,22933
100194586,22936
100200022,22938
100206245,22942
100212439,22946
100218629,22950
100224851,22958
100231072,22963
100237279,22951
100243433,22963
100249656,22964
100255847,22966
100262029,22974
100268234,22970
100274394,22982
100281127,22981
100287371,22977
100298753,23045
100304257,23048
100310441,23053
100316625,23051
100322828,23053
100329043,23056
100334235,23059
100340431,23051
100346610,23055
100352815,23056
100359044,23062
100365250,23064
100371464,23061
100377683,23068
100383836,23068
100390021,23066
100396225,23062
100401713,23064
100407922,23075
100414129,23073
100420336,23071
100426553,23077
100432759,23119
100439022,23115
100451834,23111
100458078,23114
100464331,23117
100470563,23116
100476748,23113
100482914,23105
100489098,23105
100495926,23089
100502168,23100
100508410,23084
100514635,23084
100520874,23078
100527087,23070
100532510,23059
100538686,23044
100544869,23040
100551054,23028
100562449,22620
100568719,22615
100574209,22616
100580403,22610
100586616,22611
100592764,22606
100598985,22604
100604195,22597
100610384,22608
100616537,22599
100622748,22594
100628956,22601
100635125,22605
100641308,22600
100647505,22602
100653696,22607
100659882,22607
100666040,22602
100672199,22607
100678404,22608
100684599,22614
100696237,22695
100702417,22696
100708578,22705
100714802,22701
100721044,22703
100727247,22704
100733440,22709
100738632,22713
100744827,22710
100751013,22714
100757199,22717
100763417,22721
100769620,22715
100775824,22720
100782041,22726
100788268,22720
100794488,22722
100800680,22715
100806116,22717
100812325,22722
100818518,22714
100824776,22719
100831004,22646
100837239,22641
100842453,22632
100848683,22631
100854894,22637
100861073,22627
100867297,22624
100872749,22621
100878971,22614
100885199,22612
100891394,22606
100897602,22607
100903754,22601
100909968,22595
100916144,22594
100922961,22593
100929110,22593
100935255,22590
100940442,22593
100946629,22586
100952790,22587
100959008,22589
100970629,22634
100976866,22647
100983065,22649
100989247,22648
100995411,22641
101001575,22646
101007735,22646
101013951,22655
101020120,22654
101026295,22650
101032480,22655
101038671,22657
101044871,22656
101051078,22662
101057268,22656
101063441,22661
101069620,22663
101074850,22667
101081040,22665
101087224,22663
101093437,22667
101105082,22707
101111266,22711
101116452,22711
101122614,22717
101129385,22715
101135604,22721
101141774,22724
101147213,22723
101153373,22722
101159569,22729
101165792,22727
101172017,22732
101178242,22727
101184417,22726
101190620,22724
101196777,22723
101202985,22719
101209196,22713
101215396,22709
101221660,22702
101227881,22694
101239339,22135
101245515,22131
101251098,22115
101257333,22112
101263541,22105
101269720,22107
101275935,22108
101281380,22099
101287613,22102
101293790,22100
101299993,22096
101306165,22098
101312340,22101
101318552,22107
101324775,22104
101330977,22107
101337173,22113
101344016,22111
101349222,22118
101355434,22122
101361655,22122
101373297,22080
101379495,22088
101385689,22089
101391908,22100
101398098,22109
101404293,22124
101410461,22135
101415683,22138
101421870,22154
101428048,22172
101434247,22177
101440498,22182
101446707,22199
101452927,22207
101459161,22216
101465397,22216
101471625,22230
101477794,22241
101483294,22241
101489527,22255
101495795,22268
101502021,22278
101508258,22485
101514499,22487
101520738,22492
101525969,22509
101532199,22308
101538401,22518
101544614,22523
101551383,22531
101557666,22540
101563940,22550
101570167,22554
101576400,22558
101582640,22577
101588886,22585
101595124,22595
101601394,22600
101607628,22605
101613862,22618
101619373,22624
101625582,22629
101631854,22642
101643286,22851
101649553,22854
101655785,22855
101661286,22869
101667477,22869
101673718,22865
101679964,22876
101686179,22880
101691398,22887
101704250,22886
101710500,22890
101716821,22894
101723109,22896
101729330,22898
101735563,22901
101741780,22903
101747269,22912
101753476,22908
101759679,22913
101771852,22930
101778128,22944
101784350,22939
101789839,22936
101796074,22933
101802316,22931
101808535,22936
101814766,22940
101819985,22937
101826199,22937
101832434,22939
101838630,22935
101844802,22938
101851011,22939
101857198,22942
101863377,22932
101869564,22935
101875760,22932
101881945,22934
101888136,22937
101894326,22931
101905986,22495
101912221,22483
101918401,22471
101923584,22456
101929782,22441
101935958,22439
101942149,22423
101948327,22400
101954469,22398
101960683,22390
101966905,22383
101973101,22376
101979311,22366
101986161,22359
101992393,22352
101998595,22346
102004780,22335
102010969,22335
102017161,22330
102022615,22330
102028839,22320
102040301,22317
102046520,22323
102052742,22327
102058148,22328
102064321,22332
102070517,22337
102076721,22337
102082927,22336
102089112,22346
102095293,22342
102101474,22351
102107721,22348
102113939,22346
102120129,22357
102126341,22357
102132559,22357
102138756,22363
102144967,22369
102151140,22366
102156338,22369
102162543,22373
102168743,22375
102174920,22417
102181115,22409
102187317,22414
102192779,22418
102199617,22422
102205863,22424
102212053,22429
102218254,22435
102224403,22444
102229626,22444
102235770,22454
102242001,22455
102248150,22466
102254412,22466
102260643,22475
102266905,22483
102273158,22489
102279350,22495
102285517,22504
102290982,22511
102297202,22515
102303409,22522
102314759,22732
102320948,22741
102327128,22744
102333340,22747
102339557,22751
102345738,22757
102351944,22764
102358125,22767
102363582,22767
102369768,22765
102375994,22780
102382193,22781
102388378,22788
102394598,22786
102400782,22793
102407646,22799
102413866,22800
102420075,22797
102425296,22806
102431541,22805
102437773,22811
102449420,22870
102455620,22868
102461813,22870
102467064,22874
102473263,22871
102479466,22877
102485708,22876
102491912,22880
102497361,22878
102503595,22877
102509781,22883
102516009,22884
102522197,22889
102528404,22880
102534599,22887
102540780,22887
102546989,22889
102553237,22891
102559465,22889
102565698,22888
102571946,22890
102583410,22528
102589661,22506
102595928,22497
102601401,22484
102607643,22466
102613848,22457
102620736,22438
102626987,22428
102632202,22419
102638441,22408
102644571,22401
102650794,22385
102657025,22377
102663259,22369
102669504,22365
102675713,22360
102681961,22350
102688175,22346
102694407,22343
102699904,22340
102706116,22339
102717530,22358
102723768,22354
102730067,22365
102736301,22370
102742533,22371
102748742,22377
102754963,22389
102761187,22391
102766656,22402
102772923,22402
102779172,22411
102785398,22419
102791614,22426
102797877,22438
102804035,22442
102810230,22452
102816446,22452
102822659,22467
102828889,22476
102835127,22481
102841328,22485
102852841,22525
102859070,22524
102865314,22525
102870792,22526
102877010,22528
102883209,22533
102889410,22525
102895663,22525
102900903,22532
102907136,22528
102913346,22536
102919554,22532
102925741,22533
102932011,22539
102938213,22536
102951054,22540
102957299,22537
102963593,22542
102969828,22554
102981587,22632
102987830,22638
102994080,22645
103000288,22644
103006529,22645
103012799,22645
103019027,22655
103025221,22660
103030474,22655
103036723,22657
103042981,22664
103049857,22665
103056142,22670
103062422,22672
103068641,22675
103074905,22683
103081161,22678
103087397,22693
103093610,22685
103099091,22697
103105306,22689
103116747,22769
103123017,22768
103129222,22773
103134659,22778
103140849,22778
103147033,22779
103153252,22784
103159411,22790
103165604,22788
103171806,22782
103178002,22789
103184235,22799
103190439,22798
103196664,22801
103202907,22803
103209091,22808
103215267,22817
103221445,22813
103227631,22812
103232839,22826
103239000,22821
103250682,22609
103256903,22601
103263766,22574
103269022,22563
103275228,22556
103281424,22535
103287624,22521
103293795,22516
103299997,22497
103305429,22485
103311632,22477
103317787,22460
103324029,22451
103330226,22445
103336437,22437
103342632,22425
103348832,22420
103355093,22406
103361293,22406
103366458,22400
103372642,22399
103378843,22389
103385014,22429
103391179,22425
103397434,22430
103403650,22433
103409835,22439
103416007,22444
103422228,22442
103428427,22450
103434630,22458
103440065,22460
103446280,22464
103452515,22466
103458737,22472
103464986,22476
103471173,22478
103478070,22484
103484257,22489
103490420,22490
103496623,22494
103501842,22496
103508045,22499
103519704,22535
103525945,22533
103532131,22527
103538361,22531
103543569,22530
103549768,22526
103555967,22525
103562151,22525
103568353,22534
103573804,22526
103580001,22529
103586183,22530
103592338,22531
103598546,22531
103604768,22528
103611021,22530
103617260,22534
103623452,22534
103629623,22537
103635802,22528
103641993,22538
103653446,22646
103659668,22641
103665861,22648
103672084,22653
103678250,22654
103685028,22655
103691223,22662
103697430,22661
103703613,22668
103709051,22670
103715272,22670
103721472,22680
103727683,22681
103733868,22678
103740081,22686
103746297,22682
103752463,22690
103758615,22700
103764803,22695
103771000,22701
103776217,22702
103787906,22772
103794081,22778
103800283,22779
103806502,22784
103812663,22786
103817858,22775
103824058,22787
103830215,22785
103836402,22793
103842626,22791
103848798,22799
103855040,22798
103861221,22795
103867457,22797
103873685,22796
103879928,22796
103886088,22804
103892250,22801
103899155,22799
103905363,22799
103910811,22794
103922309,22436
103928509,22424
103934674,22409
103940860,22414
103947033,22393
103952498,22399
103958651,22390
103964868,22381
103971098,22379
103977272,22376
103982470,22371
103988655,22364
103994846,22363
104001017,22360
104007202,22358
104013413,22356
104019610,22359
104025783,22353
104032006,22354
104038179,22357
104044415,22350
104050606,22353
104056803,22451
104063001,22455
104069212,22452
104075438,22462
104081632,22466
104087132,22469
104093315,22474
104099484,22477
104105704,22477
104112503,22484
104117760,22490
104123963,22487
104130129,22482
104136320,22492
104142570,22498
104148798,22495
104155040,22500
104161258,22492
104167436,22501
104173625,22503
104179807,22495
104185299,22506
104203343,22500
104209610,22503
104215861,22504
104222060,22502
104228220,22508
104234445,22511
104240682,22511
104246089,22514
104252291,22518
104258487,22516
104264692,22520
104270906,22520
104277128,22524
104283321,22533
104289491,22534
104295690,22533
104301906,22543
104308060,22540
104314263,22546
104326324,22638
104332555,22643
104338710,22648
104344922,22651
104351117,22659
104356536,22653
104362738,22664
104368925,22662
104375074,22662
104381292,22573
104387454,22675
104393643,22675
104399867,22676
104406093,22679
104412306,22678
104418522,22684
104424707,22685
104430899,22682
104437063,22688
104443239,22687
104448802,22689
104460322,22769
104466531,22767
104472767,22772
104478974,22770
104485174,22767
104490589,22771
104496747,22766
104502988,22757
104509143,22759
104515277,22745
104520521,22753
104526712,22740
104532970,22738
104539807,22728
104546049,22716
104552224,22708
104558435,22692
104564622,22676
104570819,22670
104576997,22655
104582431,22637
104588625,22620
104594769,22300
104600996,22300
104607235,22293
104613471,22298
104619691,22292
104624872,22296
104631125,22299
104637328,22300
104643513,22306
104649747,22301
104655259,22306
104661506,22308
104667752,22308
104673992,22309
104680252,22305
104686487,22315
104692719,22319
104698946,22324
104705166,22320
104711431,22322
104717664,22326
104723931,22331
104735410,22435
104741643,22438
104748438,22439
104754734,22443
104760235,22445
104766447,22448
104772704,22446
104778925,22445
104785133,22452
104790691,22446
104796899,22456
104803099,22447
104809297,22443
104815542,22448
104821794,22449
104828050,22448
104834264,22448
104840459,22448
104846701,22446
104852962,22441
104858210,22446
104869942,22477
104876126,22478
104882337,22480
104888600,22481
104893838,22489
104900074,22490
104906321,22491
104912540,22501
104918774,22504
104924301,22505
104930525,22506
104936773,22510
104943035,22518
104949276,22528
104955475,22525
104962381,22528
104968611,22530
104974874,22534
104981108,22540
104987327,22543
104992544,22549
105004253,22650
105010404,22657
105016659,22660
105022912,22655
105028146,22663
105034369,22663
105040550,22661
105046771,22671
105052975,22670
105058409,22670
105064680,22675
105070895,22681
105077145,22679
105083356,22684
105089577,22692
105095809,22691
105102027,22693
105108157,22697
105114286,22698
105120482,22698
105126709,22702
105138211,22773
105144481,22764
105150752,22752
105157019,22756
105163237,22749
105169461,22739
105176341,22730
105182569,22720
105188760,22706
105194226,22697
105200438,22682
105206660,22667
105212846,22659
105219069,22637
105225253,22623
105231476,22607
105237712,22595
105243987,22584
105250210,22564
105256446,22552
105261653,22526
105273390,22291
105279644,22288
105285888,22289
105292077,22289
105297306,22288
105303527,22284
105309756,22286
105316004,22291
105322245,22286
105327734,22291
105334019,22290
105340244,22294
105346470,22298
105352727,22296
105358939,22295
105365155,22290
105371358,22299
105377593,22296
105383816,22297
105390681,22298
105395930,22311
105407659,22397
105413850,22404
105420086,22399
105426311,22408
105432513,22407
105438687,22414
105451502,22404
105457038,22407
105463307,22411
105469525,22411
105475759,22412
105481916,22412
105488174,22421
105494425,22419
105500696,22417
105506964,22426
105513169,22423
105519439,22421
105524681,22420
105536446,22474
105542687,22480
105548916,22475
105555148,22485
105561358,22490
105567595,22496
105573816,22498
105580039,22500
105586230,22498
105591461,22508
105597736,22506
105604522,22514
105610806,22508
105617033,22520
105623304,22522
105629541,22531
105635756,22532
105641994,22536
105648227,22542
105654441,22543
105659905,22541
105671386,22650
105677610,22655
105683829,22657
105690033,22655
105696242,22661
105701712,22660
105707931,22658
105714151,22670
105720366,22665
105726601,22673
105732854,22670
105739071,22674
105745324,22681
105751530,22681
105757772,22689
105764032,22684
105770235,22691
105776497,22692
105782740,22695
105788983,22696
105794193,22701
105805867,22788
105812043,22786
105818907,22784
105825153,22788
105831396,22779
105836641,22780
105842844,22763
105849055,22756
105855288,22756
105861493,22748
105866958,22732
105873185,22729
105879437,22711
105885707,22716
105891946,22689
105898132,22687
105904387,22667
105910636,22654
105916838,22642
105923083,22632
105928330,22620
105940076,22395
105946299,22400
105952528,22401
105958771,22393
105965028,22399
105970256,22394
105976495,22401
105982653,22396
105988885,22403
105995127,22406
106000589,22403
106006808,22404
106013057,22402
106019311,22407
106025586,22405
106032471,22408
106038661,22409
106044838,22411
106051046,22410
106057224,22409
106062434,22419
106074151,22528
106080329,22529
106086553,22532
106092775,22537
106098986,22538
106105155,22535
106111347,22542
106117549,22545
106123740,22549
106129958,22549
106135402,22548
106141622,22549
106147836,22551
106154036,22556
106160257,22554
106166482,22553
106172689,22560
106178874,22553
106185054,22562
106191291,22558
106197448,22568
106208868,22640
106215056,22640
106221227,22645
106227432,22649
106233647,22656
