55531898,25616
55538280,25623
55544019,25623
55550214,25621
55556394,25622
55562615,25626
55573996,25631
55580177,25637
55586400,25629
55592606,25627
55598810,25633
55605024,25635
55610477,25631
55616667,25632
55622877,25630
55629070,25623
55635281,25629
55641492,25632
55648393,25623
55654639,25621
55660861,25621
55667047,25615
55673223,25613
55678421,25609
55684654,25611
55690848,25605
55697079,25606
55708644,25627
55714792,25630
55720992,25630
55727206,25633
55733411,25628
55739602,25624
55744795,25631
55751043,25637
55757233,25632
55763411,25637
55769653,25642
55775873,25643
55781338,25636
55787545,25648
55793760,25642
55799955,25645
55806163,25641
55811362,25641
55817554,25644
55823711,25643
55829897,25651
55836094,25647
55847843,25650
55854058,25651
55860918,25643
55867110,25647
55873316,25655
55879511,25652
55885666,25652
55891836,25646
55898045,25644
55904215,25647
55910396,25646
55915877,25643
55922041,25645
55928254,25645
55934441,25648
55940663,25650
55945856,25646
55952027,25644
55958221,25652
55964396,25648
55970581,25652
55982279,25660
55988506,25656
55994740,25656
56000903,25660
56007042,25658
56013233,25661
56019386,25662
56025633,25658
56031811,25659
56037975,25664
56044149,25661
56050354,25663
56056546,25658
56062731,25659
56069607,25664
56075778,25662
56080990,25665
56087172,25665
56093415,25664
56099645,25664
56105792,25659
56112008,25662
56118238,25654
56124463,25655
56130650,25659
56136854,25646
56143054,25659
56149222,25649
56154673,25654
56160869,25650
56167068,25652
56173244,25650
56179391,25650
56185610,25648
56190809,25642
56197052,25649
56203237,25654
56209394,25646
56214908,25649
56221069,25646
56227266,25653
56233498,25645
56239687,25642
56251128,25625
56257335,25627
56263526,25627
56269724,25627
56275930,25624
56282768,25629
56288194,25629
56294371,25628
56300613,25628
56306820,25629
56313044,25621
56319248,25631
56324448,25631
56330650,25628
56336813,25619
56343050,25624
56349226,25624
56355406,25632
56361601,25624
56367778,25623
56374009,25619
56385688,25627
56391868,25627
56398036,25623
56404171,25632
56410329,25627
56416546,25632
56422728,25631
56428916,25626
56435116,25634
56441281,25636
56447514,25629
56453675,25636
56458920,25628
56465118,25628
56471316,25625
56477508,25626
56483699,25627
56489788,25629
56496066,25625
56502302,25627
56508527,25628
56520172,25614
56526380,25621
56532620,25619
56538833,25613
56545030,25626
56551244,25617
56557402,25618
56562630,25619
56568831,25620
56575024,25622
56581228,25617
56587398,25623
56593610,25621
56599812,25623
56606086,25621
56612278,25622
56618442,25621
56623872,25625
56630066,25624
56636263,25624
56642422,25627
56653840,25646
56660064,25645
56666246,25648
56672386,25644
56678569,25648
56684732,25643
56690920,25646
56696358,25643
56709709,25652
56715923,25648
56722204,25646
56728411,25650
56734634,25648
56740804,25651
56747040,25650
56752500,25654
56758695,25650
56764879,25649
56771049,25651
56782506,25627
56788731,25630
56794992,25629
56801168,25627
56807395,25635
56813571,25631
56819769,25630
56825998,25629
56832180,25631
56838345,25630
56844529,25630
56850742,25631
56856963,25633
56863171,25633
56868595,25625
56874796,25635
56880984,25628
56887190,25630
56893393,25633
56899629,25628
56905843,25624
56917862,25628
56924113,25624
56930300,25624
56936528,25619
56942692,25618
56948849,25620
56955055,25617
56961248,25616
56966612,25622
56972846,25619
56979017,25618
56985231,25612
56991385,25614
56997612,25611
57002881,25618
57009085,25616
57015311,25607
57021473,25613
57026917,25620
57033090,25612
57039304,25612
57045549,25621
57051758,25625
57057984,25622
57064174,25626
57070360,25629
57076526,25624
57082701,25624
57088914,25621
57095132,25628
57100356,25626
57106582,25624
57112748,25624
57118947,25627
57125137,25624
57131978,25624
57137433,25617
57143663,25618
57149846,25614
57156018,25615
57161236,25618
57167408,25618
57173594,25613
57179801,25618
57191552,25588
57197750,25594
57203921,25587
57210088,25589
57216299,25595
57222490,25592
57228726,25598
57234961,25589
57241128,25592
57247273,25596
57253480,25596
57259701,25597
57265876,25596
57271106,25598
57277293,25596
57283416,25596
57289615,25600
57295041,25597
57301282,25601
57307519,25602
57313734,25609
57319937,25609
57326149,25671
57332351,25677
57338579,25678
57345385,25678
57351607,25680
57357844,25675
57364016,25681
57370197,25681
57375398,25679
57381629,25674
57387850,25678
57394037,25677
57400261,25679
57405716,25671
57411881,25676
57418098,25671
57424307,25670
57429504,25673
57435713,25672
57441889,25664
57448089,25663
57454288,25666
57466000,25637
57472198,25627
57478363,25624
57484550,25627
57490703,25624
57496861,25626
57503045,25620
57509255,25622
57515455,25621
57521669,25620
57527876,25620
57534069,25619
57540262,25609
57546409,25609
57553246,25610
57559403,25611
57564611,25610
57570791,25609
57577002,25609
57583178,25617
57589403,25607
57601207,25605
57607365,25612
57613548,25613
57619718,25608
57625931,25617
57632123,25614
57638291,25612
57644502,25607
57649968,25616
57656155,25614
57662375,25619
57668624,25617
57674807,25616
57680025,25617
57686210,25621
57692366,25622
57698607,25621
57704784,25621
57710971,25623
57717163,25629
57723366,25625
57735022,25627
57741237,25627
57747376,25629
57753559,25626
57759719,25625
57766601,25625
57772751,25624
57778971,25621
57784168,25631
57790345,25624
57796507,25620
57802721,25624
57808884,25618
57814337,25616
57820579,25617
57826784,25625
57832978,25620
57839205,25615
57845386,25620
57851625,25619
57857830,25617
57869246,25603
57875448,25604
57881614,25598
57887812,25611
57894042,25609
57900239,25609
57906404,25604
57912618,25602
57918096,25603
57924295,25605
57930500,25605
57936725,25605
57942902,25604
57949080,25602
57961882,25599
57967341,25606
57973584,25613
57980456,25603
57986694,25613
57992914,25607
57999108,25608
58005336,25606
58011559,25608
58017743,25604
58023943,25603
58030206,25606
58036406,25601
58042624,25607
58047826,25606
58054023,25602
58060222,25603
58066379,25609
58072586,25605
58078790,25601
58084237,25602
58090385,25605
58096633,25605
58101818,25599
58108018,25593
58114220,25597
58120419,25607
58126641,25600
58138259,25605
58144418,25602
58150619,25603
58156792,25604
58162963,25600
58169129,25604
58175303,25609
58181514,25602
58187739,25602
58194631,25594
58200842,25597
58207029,25604
58213213,25597
58218405,25607
58224603,25601
58230811,25597
58236296,25597
58242493,25601
58248684,25603
58254868,25592
58261033,25605
58272434,25600
58278632,25599
58284857,25592
58291106,25600
58297331,25603
58303519,25596
58309672,25590
58315861,25601
58321348,25590
58327555,25589
58333726,25591
58339948,25593
58346147,25597
58352344,25596
58358535,25592
58364761,25596
58369982,25601
58376161,25596
58382357,25603
58388566,25595
58394736,25595
58401574,25594
58407816,25607
58414045,25597
58420246,25604
58426431,25605
58432613,25604
58438788,25597
58444994,25597
58451194,25598
58456665,25604
58462874,25596
58469049,25598
58475227,25600
58481392,25596
58487565,25598
58492768,25596
58499004,25600
58504442,25600
58510631,25596
58516816,25592
58523026,25597
58529173,25600
58535344,25598
58541564,25597
58547724,25600
58553894,25601
58560083,25595
58566284,25593
58572492,25600
58578686,25596
58584888,25592
58590108,25594
58596320,25593
58602574,25597
58608747,25599
58615553,25601
58621755,25594
58627153,25598
58633367,25592
58639570,25595
58645761,25598
58651975,25596
58658176,25593
58664388,25590
58670620,25593
58682058,25578
58688248,25571
58694436,25578
58700620,25570
58706832,25587
58713061,25574
58719289,25575
58724758,25571
58730961,25573
58737151,25567
58743372,25568
58749642,25573
58755826,25571
58761031,25570
58767239,25568
58773387,25568
58778790,25572
58785027,25569
58791253,25569
58797431,25561
58803623,25567
58809805,25568
58815976,25557
58822157,25557
58828950,25555
58835143,25557
58841330,25550
58847549,25559
58853753,25556
58859951,25550
58866146,25547
58872338,25548
58878578,25552
58884793,25558
58891017,25555
58896217,25548
58902387,25553
58908585,25552
58914029,25548
58920200,25550
58926414,25553
58932615,25550
58938807,25550
58944975,25551
58956347,25520
58962521,25510
58968719,25509
58974931,25509
58981141,25505
58987384,25504
58993604,25505
58999065,25500
59005193,25507
59011444,25503
59017685,25501
59023872,25501
59030086,25493
59036840,25492
59043031,25501
59048258,25493
59054453,25497
59060627,25497
59066841,25499
59073052,25498
59079262,25500
59090881,25561
59097037,25565
59103252,25566
59109434,25578
59115642,25574
59121828,25575
59128019,25576
59134202,25575
59140395,25585
59146650,25593
59152876,25594
59159042,25596
59165216,25599
59170423,25606
59176616,25612
59182054,25608
59188232,25615
59194400,25622
59207203,25627
59213449,25637
59219752,25757
59225960,25751
59232198,25756
59238432,25756
59244659,25762
59251458,25770
59257700,25768
59263868,25769
59269419,25771
59275666,25773
59281883,25775
59288087,25783
59294301,25775
59299534,25785
59305747,25779
59311216,25785
59317394,25784
59323646,25791
59329857,25782
59336078,25792
59342283,25793
59348492,25792
59359931,25767
59366121,25764
59372306,25757
59378487,25755
59384687,25754
59390885,25754
59397104,25745
59402566,25743
59408746,25746
59414963,25742
59421151,25736
59427356,25738
59433599,25732
59439792,25738
59446009,25731
59452221,25727
59458401,25731
59465280,25715
59471488,25728
59477704,25720
59483911,25726
59495290,25721
59501492,25725
59507718,25723
59513967,25722
59520192,25729
59526410,25725
59532665,25727
59538185,25731
59544444,25729
59550697,25737
59556872,25731
59563071,25731
59569301,25732
59574559,25742
59580791,25738
59586283,25742
59592507,25738
59598744,25740
59604977,25738
59611221,25737
59617467,25749
59628950,25747
59635152,25748
59641391,25747
59647627,25744
59653848,25746
59660110,25738
59666376,25741
59671873,25737
59678709,25736
59684952,25729
59691202,25733
59697464,25734
59703704,25730
59708936,25737
59715159,25733
59720615,25732
59726826,25725
59733076,25724
59739336,25728
59745572,25727
59751786,25725
59763248,25704
59769450,25699
59775694,25697
59781890,25702
59788123,25701
59794343,25706
59800586,25697
59806856,25689
59813077,25698
59819347,25700
59825563,25699
59831794,25695
59838036,25695
59843545,25700
59849753,25702
59854956,25693
59861164,25698
59867423,25695
59873660,25695
59879894,25698
59886143,25696
59898513,25701
59904742,25709
59910978,25702
59917221,25703
59923459,25705
59929672,25700
59935883,25702
59941426,25706
59947662,25701
59953866,25705
59960096,25698
59966348,25696
59972588,25705
59977825,25703
59984092,25699
59989590,25699
59995805,25697
60002063,25704
60008329,25703
60014603,25698
60020829,25694
60032268,25688
60038531,25690
60044762,25683
60050975,25685
60057183,25683
60063423,25685
60069672,25684
60075920,25676
60082142,25679
60088338,25682
60094585,25677
60101416,25681
60107748,25679
60113259,25677
60119393,25684
60124594,25674
60130771,25675
60137002,25674
60143227,25683
60149477,25679
60155731,25677
60167430,25664
60173650,25659
60179866,25659
60186103,25672
60192361,25674
60198610,25669
60204836,25671
60210394,25666
60216696,25662
60222927,25671
60229150,25670
60235372,25663
60241588,25657
60246835,25658
60253077,25663
60258573,25665
60264811,25660
60271012,25658
60277260,25661
60283521,25648
60289736,25656
60301177,25634
60307378,25639
60314148,25639
60320406,25642
60326612,25642
60332860,25638
60339100,25639
60344605,25641
60350857,25644
60357039,25640
60363247,25637
60369410,25637
60375665,25638
60380894,25636
60387083,25643
60392535,25644
60398764,25640
60405000,25637
60411181,25639
60417364,25641
60423577,25643
60429776,25636
60435976,25628
60442163,25630
60448393,25629
60461215,25627
60467484,25625
60473759,25624
60479996,25627
60486172,25621
60492380,25623
60498613,25627
60504800,25628
60510026,25623
60516193,25620
60521662,25613
60527903,25616
60534733,25624
60540945,25618
60547196,25624
60553387,25621
60559625,25614
60571073,25608
60577256,25615
60583454,25611
60589632,25613
60595801,25612
60602059,25611
60608250,25619
60613698,25606
60619905,25622
60626119,25618
60632304,25618
60638513,25613
60644697,25616
60650913,25619
60656105,25613
60662277,25620
60668432,25620
60674621,25612
60680799,25616
60687026,25616
60693205,25622
60704893,25597
60711058,25602
60717269,25605
60723438,25602
60729643,25603
60735826,25600
60742014,25600
60748895,25601
60755084,25600
60761297,25603
60767540,25603
60773719,25596
60779928,25598
60785157,25599
60790593,25603
60796796,25596
60803030,25599
60809231,25602
60815397,25592
60821631,25595
60827821,25600
60839240,25582
60845407,25577
60851621,25579
60857820,25576
60864028,25573
60870231,25579
60876416,25579
60882631,25576
60888056,25579
60894253,25580
60900414,25574
60906647,25578
60912864,25582
60919019,25582
60924227,25583
60930361,25577
60936537,25576
60942723,25578
60948929,25579
60955700,25580
60961944,25575
60973593,25569
60979748,25569
60985920,25567
60992124,25568
60998311,25565
61004545,25568
61010737,25569
61016931,25569
61022160,25564
61028360,25567
61034548,25573
61040704,25567
61046880,25567
61053095,25570
61058571,25568
61064769,25574
61070951,25571
61077148,25571
61083364,25576
61089590,25571
61095831,25570
61102041,25571
61108208,25569
61114407,25573
61120583,25575
61126721,25572
61132932,25571
61139116,25576
61145313,25574
61151559,25571
61156821,25569
61163043,25569
61169861,25571
61176062,25566
61182261,25574
61188409,25568
61193193,25566
61199375,25572
61205580,25568
61211753,25573
61217944,25575
61224129,25566
61230308,25566
61236543,25572
61247886,25570
61254066,25576
61260227,25574
61266487,25572
61272752,25574
61278999,25575
61285229,25573
61291420,25573
61297602,25577
61303763,25567
61309967,25566
61316196,25570
61322386,25572
61327160,25575
61333342,25570
61339569,25571
61345751,25573
61351942,25567
61358181,25568
61364420,25569
61370640,25570
61382836,25549
61389057,25553
61395238,25559
61401446,25557
61407665,25557
61413891,25559
61420125,25555
61426323,25557
61431568,25558
61437725,25549
61443877,25560
61450088,25547
61456306,25555
61461729,25554
61467947,25546
61474112,25553
61480333,25548
61486533,25546
61492727,25549
61498906,25551
61505088,25553
61511249,25545
61517440,25541
61523631,25541
61529784,25538
61535991,25543
61542177,25534
61548384,25536
61554559,25540
61560715,25537
61565927,25535
61572141,25539
61578377,25542
61584614,25532
61591385,25535
61596814,25534
61602368,25540
61608601,25539
61614788,25540
61621015,25535
61627246,25535
61633465,25529
61639657,25530
61645787,25541
61657216,25525
61663369,25527
61669584,25535
61675779,25526
61681975,25523
61688202,25524
61694397,25524
61707175,25527
61713418,25520
61719717,25526
61725975,25528
61731446,25522
61737657,25526
61743854,25522
61750018,25521
61756216,25521
61762402,25523
61768619,25530
61774849,25523
61786263,25518
61792473,25521
61798659,25519
61805404,25523
61811634,25526
61817822,25520
61824096,25522
61829584,25524
61835765,25520
61841979,25518
61848153,25523
61854335,25521
61860575,25525
61865008,25522
61871208,25522
61877429,25519
61883606,25519
61889809,25519
61896041,25522
61902261,25524
61908440,25529
61914633,25516
61920832,25534
61927005,25530
61933202,25530
61939417,25524
61945601,25530
61951756,25525
61957970,25525
61964174,25531
61970381,25524
61976568,25525
61982723,25519
61988894,25524
61995117,25525
61999910,25521
62006032,25521
62012241,25519
62019041,25521
62025239,25520
62031431,25520
62037680,25519
62043895,25514
62050082,25517
62061484,25502
62067679,25503
62073872,25504
62080126,25501
62086342,25503
62092556,25508
62098772,25502
62104198,25501
62110387,25502
62116596,25503
62122796,25506
62128977,25499
62133403,25501
62139600,25501
62145785,25513
62151969,25500
62158194,25498
62164405,25492
62170626,25493
62176779,25496
62182965,25497
62189146,25496
62195345,25502
62201571,25501
62207779,25492
62213991,25500
62220178,25494
62227078,25492
62233264,25497
62238704,25497
62244911,25498
62251102,25494
62257292,25491
62263419,25495
62268635,25493
62274833,25489
62281091,25490
62287291,25489
62293466,25493
62299688,25488
62305919,25498
62312127,25485
62318356,25492
62330014,25485
62336205,25486
62342401,25484
62348605,25483
62354777,25487
62360977,25487
62367158,25485
62373333,25483
62379550,25481
62385740,25477
62391947,25482
62398100,25481
62402528,25484
62408666,25483
62414858,25477
62421085,25477
62427278,25478
62434078,25481
62440256,25478
62446451,25476
62452662,25477
62464272,25458
62470415,25466
62476651,25464
62482856,25474
62489073,25469
62495269,25472
62501533,25467
62507763,25465
62512932,25473
62519113,25469
62525281,25472
62531488,25469
62536916,25468
62542114,25470
62548296,25469
62554526,25469
62560736,25473
62566961,25465
62573153,25464
62579372,25463
62585521,25464
62591739,25466
62603336,25434
62609552,25433
62615755,25432
62621949,25430
62628159,25428
62634353,25430
62640570,25431
62647369,25429
62653605,25430
62659782,25427
62665931,25432
62671161,25433
62676600,25428
62682832,25427
62689034,25425
62695244,25427
62701406,25426
62707564,25426
62713768,25426
62719963,25430
62726156,25432
62737565,25436
62743754,25438
62749940,25439
62756158,25436
62762367,25445
62768614,25434
62774832,25442
62781017,25445
62787210,25443
62793393,25438
62799626,25445
62805826,25442
62810647,25443
62816865,25442
62823110,25451
62829357,25444
62835581,25445
62841793,25437
62848003,25445
62854254,25441
62860992,25444
62872376,25440
62878645,25434
62884831,25433
62891080,25436
62897328,25436
62903506,25436
62909675,25435
62915877,25437
62921379,25436
62927595,25441
62933847,25441
62940056,25436
62951065,25436
62957364,25443
62963686,25448
62969940,25444
62976199,25443
62982482,25437
62988678,25446
63000395,25465
63006639,25469
63012874,25463
63019126,25454
63025362,25456
63031626,25456
63037863,25462
63044114,25465
63050392,25468
63056585,25470
63062803,25465
63069039,25467
63073515,25467
63080382,25459
63086637,25464
63092858,25465
63099093,25464
63105297,25464
63111516,25464
63117746,25463
63123973,25469
63135685,25471
63141856,25474
63148083,25472
63154339,25474
63160540,25475
63166724,25471
63173013,25472
63179263,25474
63185432,25476
63190710,25475
63196939,25469
63203128,25481
63207891,25480
63214115,25481
63220360,25480
63226619,25482
63232841,25484
63239050,25486
63245323,25486
63251581,25480
63257753,25486
63269115,25497
63275280,25501
63281522,25501
63288392,25497
63294610,25493
63300853,25499
63307078,25501
63313283,25501
63319518,25501
63324975,25503
63331204,25497
63337467,25500
63341948,25498
63348180,25505
63354376,25506
63360667,25502
63366892,25504
63373128,25502
63379332,25503
63385584,25510
63391782,25503
63403478,25499
63409675,25506
63415889,25504
63422130,25502
63428360,25510
63434609,25501
63440780,25499
63447080,25497
63453324,25504
63459555,25493
63465748,25503
63471946,25498
63476406,25504
63482664,25497
63488901,25499
63495140,25495
63501980,25505
63508224,25493
63514439,25494
63520687,25501
63526908,25502
63538578,25503
63544765,25508
63550988,25505
63557239,25505
63563471,25509
63569722,25505
63575951,25500
63582207,25499
63588377,25502
63594595,25503
63599829,25498
63606021,25499
63611502,25502
63617736,25509
63623934,25507
63630168,25502
63636401,25508
63642638,25497
63648865,25508
63655078,25499
63661317,25500
63672794,25489
63679017,25496
63685223,25487
63691462,25487
63697724,25495
63703966,25491
63710822,25489
63717083,25488
63723313,25485
63729509,25498
63735015,25490
63741233,25491
63745684,25487
63751922,25487
63758162,25489
63764374,25489
63770632,25489
63776864,25488
63783066,25488
63789298,25489
63795483,25490
63807172,25499
63813370,25498
63819570,25498
63825797,25500
63832026,25504
63838296,25502
63844535,25498
63850780,25498
63857013,25506
63863279,25506
63868513,25496
63874786,25499
63880298,25501
63886533,25502
63892786,25500
63898995,25505
63905266,25500
63911493,25508
63917717,25504
63924582,25504
63930834,25503
63942262,25503
63948510,25516
63954804,25521
63961064,25507
63967295,25508
63973512,25510
63979780,25520
63985986,25518
63992198,25519
63998418,25512
64003876,25514
64010045,25516
64016267,25519
64021460,25517
64027674,25515
64033844,25518
64040051,25516
64046282,25511
64052450,25517
64058665,25514
64064853,25511
64076446,25539
64082655,25539
64088901,25534
64095092,25532
64101361,25540
64107614,25543
64113850,25541
64120025,25538
64126245,25542
64132442,25540
64138603,25540
64144817,25542
64150017,25547
64155453,25549
64161653,25541
64167857,25547
64174075,25548
64180286,25539
64186478,25543
64192667,25543
64205432,25542
64211663,25541
64217865,25539
64224059,25544
64230262,25539
64236455,25546
64242695,25536
64248899,25533
64255114,25537
64261358,25544
64266607,25540
64272830,25537
64279066,25539
64283841,25535
64290000,25539
64296180,25533
64302357,25541
64308599,25541
64314804,25536
64321038,25540
64327261,25541
64333473,25541
64344885,25544
64351136,25546
64357881,25542
64364051,25544
64370248,25541
64376365,25540
64382506,25545
64388722,25542
64394895,25546
64401098,25540
64407316,25545
64413456,25538
64418262,25552
64424444,25548
64430679,25550
64436852,25548
64443069,25548
64449294,25542
64455458,25551
64461664,25547
64467775,25542
64473974,25546
64480157,25552
64486329,25551
64492487,25556
64498684,25551
64504884,25552
64511094,25554
64517307,25554
64523566,25554
64529776,25552
64535963,25555
64541164,25558
64547363,25561
64553541,25556
64559724,25554
64566580,25559
64572750,25553
64579002,25552
64585262,25557
64591478,25562
64597697,25560
64603870,25552
64610099,25555
64621700,25554
64627912,25551
64634086,25564
64640292,25560
64646474,25560
64652699,25559
64658912,25564
64665115,25563
64671304,25561
64676511,25568
64682676,25567
64688111,25570
64693334,25552
64699545,25566
64705739,25567
64711922,25567
64718126,25566
64724327,25562
64730490,25573
64736683,25572
64742857,25574
64754487,25583
64760673,25575
64766881,25575
64773696,25585
64779938,25578
64786153,25584
64792373,25583
64798597,25584
64804795,25580
64809973,25583
64816190,25581
64821625,25585
64827805,25583
64834000,25581
64840202,25581
64846364,25576
64852608,25583
64858808,25584
64865012,25585
64871190,25585
64877375,25581
64888777,25590
64894934,25591
64901135,25582
64907354,25585
64913579,25586
64919822,25589
64926042,25588
64932226,25587
64938450,25590
64944672,25589
64950821,25587
64956268,25585
64962421,25590
64967607,25590
64973777,25585
64980009,25590
64986883,25591
64993108,25590
64999304,25590
65005481,25593
65011671,25592
65023262,25588
65029445,25593
65035668,25593
65041856,25587
65048095,25589
65054294,25592
65060457,25592
65066688,25594
65072903,25593
65079114,25590
65084318,25593
65090492,25591
65096692,25592
65102114,25593
65108336,25595
65114494,25590
65120722,25596
65126931,25588
65133134,25601
65139342,25593
65145562,25595
65151784,25600
65157951,25602
65164122,25605
65170340,25610
65176556,25603
65182725,25602
65188946,25608
65195778,25605
65201980,25599
65208173,25608
65214370,25603
65219560,25602
65225739,25604
65231176,25599
65236366,25601
65242595,25603
65248772,25601
65254990,25601
65261183,25599
65267350,25606
65273564,25601
65279755,25604
65285843,25599
65292039,25605
65298251,25608
65304460,25609
65310650,25609
65316845,25612
65323087,25610
65329337,25611
65335545,25610
65341749,25606
65347902,25620
65353359,25616
65359574,25608
65364776,25612
65371005,25615
65377241,25615
65383434,25618
65389655,25620
65395830,25617
65401983,25615
65408858,25621
65415045,25616
65421228,25624
65432848,25624
65439085,25621
65451899,25623
65458122,25619
65464380,25618
65470597,25624
65476787,25626
65482985,25623
65489235,25622
65494689,25627
65500917,25621
65506135,25619
65512352,25625
65518554,25623
65524739,25625
65530944,25622
65537165,25626
65543372,25622
65549545,25621
65561207,25630
65567341,25627
65573517,25626
65579737,25630
65585946,25623
65592161,25629
65598341,25625
65604574,25629
65610809,25625
65617020,25632
65623852,25633
65629059,25634
65635262,25634
65640811,25641
65647011,25634
65653204,25632
65659398,25633
65665570,25626
65671763,25635
65677945,25629
65684149,25636
65695778,25640
65701980,25641
65708169,25640
65714362,25643
65720598,25636
65726800,25641
65732998,25640
65739175,25637
65745359,25640
65751581,25637
65756808,25634
65763006,25639
65769229,25633
65774799,25635
65781025,25639
65787269,25639
65793532,25631
65799810,25640
65806046,25640
65812225,25636
65818434,25642
65824634,25633
65830887,25648
65837782,25643
65844019,25643
65850248,25646
65856470,25648
65862705,25640
65868955,25643
65875194,25642
65881386,25644
65887628,25642
65893118,25644
65898366,25639
65904663,25646
65910161,25648
65916408,25649
65922656,25648
65928867,25644
65935121,25648
65941366,25644
65947574,25641
65953751,25647
65959955,25648
65971417,25645
65977692,25647
65983906,25642
65990117,25642
65996330,25648
66002588,25639
66008776,25645
66015004,25645
66021219,25638
66026681,25651
66031880,25642
66038103,25641
66043605,25643
66050464,25642
66056705,25646
66062932,25642
66069170,25639
66075436,25641
66081655,25645
66087857,25639
66094068,25643
66105526,25656
66111759,25651
66118008,25654
66124261,25662
66130518,25660
66136808,25661
66143009,25663
66149215,25657
66155419,25657
66160893,25661
66166132,25661
66172369,25659
66177847,25661
66184077,25663
66190317,25668
66196570,25659
66202810,25669
66208997,25660
66215242,25671
66221451,25672
66227694,25666
66239188,25663
66245409,25663
66251663,25662
66258532,25663
66264810,25661
66271048,25656
66277307,25664
66283531,25659
66289769,25661
66295263,25670
66300481,25652
66306703,25656
66312938,25654
66319167,25658
66325364,25649
66331626,25644
66337862,25646
66344113,25648
66350329,25652
66356526,25651
66362794,25644
66374509,25635
66380735,25635
66386948,25634
66393195,25635
66399480,25633
66405703,25633
66411916,25631
66418143,25630
66424363,25633
66429584,25636
66435098,25633
66441356,25635
66447598,25629
66453820,25634
66460065,25628
66466329,25625
66473248,25627
66479509,25626
66485713,25631
66491921,25623
66498181,25625
66509664,25632
66515893,25623
66522121,25628
66528328,25632
66534510,25632
66540717,25626
66546864,25627
66553113,25629
66559339,25625
66564806,25632
66569997,25626
66576218,25625
66582440,25629
66587970,25625
66594233,25626
66600496,25625
66606770,25626
66612991,25622
66619208,25621
66625454,25618
66631711,25616
66643122,25617
66649329,25614
66655610,25606
66661843,25612
66668096,25608
66674325,25617
66680536,25616
66687385,25620
66693554,25616
66705626,25612
66711835,25611
66717131,25612
66723350,25613
66729604,25617
66735797,25615
66742038,25611
66748236,25613
66754437,25611
66760622,25616
66772231,25627
66778429,25635
66784630,25626
66790849,25628
66797103,25626
66803324,25624
66809528,25628
66815756,25626
66821953,25628
66828145,25624
66834334,25631
66839518,25631
66845773,25627
66851226,25634
66857439,25630
66863695,25621
66869878,25630
66876056,25631
66882332,25629
66888522,25619
66894758,25628
66900970,25623
66907824,25630
66914081,25632
66920303,25625
66926482,25632
66932714,25633
66938882,25631
66945104,25633
66951339,25632
66957502,25630
66963695,25631
66968898,25640
66974362,25629
66980520,25633
66985787,25627
66991947,25638
66998182,25642
67004352,25634
67010559,25640
67016781,25635
67022956,25643
67029184,25637
67035427,25639
67047058,25633
67053258,25631
67059420,25626
67065676,25634
67071890,25636
67078079,25631
67084236,25636
67090412,25628
67096618,25630
67102802,25632
67107988,25632
67114810,25630
67120287,25635
67126447,25629
67132689,25634
67138914,25631
67145103,25633
67151344,25624
67157511,25632
67163721,25625
67169917,25634
67181298,25630
67187521,25632
67193758,25625
67199953,25629
67206218,25629
67212426,25630
67218644,25625
67224780,25620
67230960,25627
67237171,25623
67242664,25627
67248849,25628
67254098,25625
67260281,25629
67266512,25621
67272755,25619
67278913,25621
67285150,25625
67291365,25625
67297513,25625
67303681,25630
67315321,25625
67321520,25630
67328355,25637
67334594,25624
67340764,25629
67346962,25630
67353157,25632
67359334,25630
67365513,25636
67371704,25625
67376177,25629
67382365,25631
67388590,25638
67394815,25634
67401035,25629
67407199,25631
67413380,25628
67419585,25632
67425791,25635
67431988,25635
67438209,25638
67449682,25629
67455844,25635
67462027,25636
67468236,25625
67474446,25624
67480648,25624
67486816,25626
67493022,25628
67499228,25626
67505409,25628
67510163,25619
67516331,25626
67522509,25625
67528705,25624
67534932,25621
67541803,25624
67548025,25622
67554205,25622
67560385,25625
67566589,25624
67572815,25626
67584262,25617
67590476,25616
67596669,25613
67602867,25619
67609095,25623
67615279,25618
67621434,25617
67627641,25616
67633828,25623
67639998,25626
67644800,25623
67650989,25625
67657183,25622
67663343,25621
67668566,25618
67674756,25616
67680940,25622
67687161,25617
67693334,25623
67699506,25621
67705699,25622
67711876,25620
67723562,25610
67729756,25614
67735995,25613
67742152,25612
67748930,25616
67755110,25615
67761253,25611
67767427,25610
67773631,25616
67778845,25610
67784258,25611
67790459,25613
67796650,25617
67802848,25611
67809076,25617
67815270,25608
67821464,25610
67827673,25611
67833891,25612
67840085,25613
67846265,25614
67857679,25613
67863897,25614
67870137,25619
67876349,25619
67882597,25614
67888811,25618
67894996,25616
67901198,25623
67907426,25616
67913668,25618
67919128,25610
67925324,25613
67931532,25615
67937745,25613
67942970,25615
67956081,25617
67962359,25615
67969248,25615
67975434,25620
67986916,25621
67993164,25621
67999395,25616
68005639,25620
68011842,25620
68018096,25612
68024341,25620
68030524,25624
68036759,25617
68042951,25612
68048455,25609
68054703,25622
68060894,25617
68067063,25618
68072341,25613
68078546,25613
68084694,25610
68090905,25615
68097149,25611
68103339,25616
68109535,25604
68121175,25609
68127378,25610
68133559,25609
68139774,25608
68145960,25618
68152112,25614
68158321,25614
68164490,25602
68170727,25605
68177603,25603
68182149,25606
68188379,25612
68194566,25607
68200814,25610
68206265,25607
68212427,25608
68218654,25607
68224823,25597
68231079,25612
68237271,25606
68243407,25604
68254804,25600
68260948,25603
68267142,25609
68273304,25606
68279494,25600
68285679,25602
68291887,25599
68298138,25597
68304339,25608
68310517,25609
68315917,25602
68321114,25598
68327313,25591
68333481,25593
68339721,25598
68345157,25596
68351365,25596
68357598,25596
68363831,25594
68370020,25596
68376231,25599
68382393,25598
68389192,25603
68395400,25598
68401634,25603
68407858,25600
68414041,25599
68420257,25593
68426426,25602
68432647,25601
68438830,25594
68445052,25599
68450239,25602
68455664,25596
68461858,25599
68468071,25602
68474267,25594
68479462,25598
68485692,25598
68491843,25598
68498043,25602
68504201,25599
68510398,25593
68516640,25598
68522877,25599
68529091,25593
68535315,25603
68541506,25600
68547729,25601
68553909,25600
68560157,25593
68566351,25595
68572521,25598
68578696,25597
68584874,25595
68591066,25596
68597900,25591
68604181,25601
68609663,25598
68615856,25605
68622056,25599
68628266,25594
68634456,25600
68640681,25597
68646889,25607
68653067,25596
68659236,25601
68665407,25592
68671617,25586
68677796,25593
68683976,25585
68690138,25591
68696327,25589
68702483,25586
68708692,25590
68714862,25585
68721030,25590
68725506,25590
68731761,25586
68738014,25586
68744187,25588
68750396,25588
68756614,25594
68762789,25588
68768972,25591
68775138,25588
68781302,25591
68787525,25592
68793738,25594
68805212,25584
68812094,25589
68818300,25585
68824502,25587
68830727,25587
68836902,25590
68843132,25579
68849303,25588
68855471,25586
68860265,25582
68866442,25586
68872632,25586
68878829,25580
68884077,25590
68890316,25590
68896521,25585
68902724,25588
68908915,25585
68915156,25587
68921386,25590
68927559,25587
68933744,25587
68939897,25580
68946161,25574
68952345,25579
68958542,25579
68964723,25577
68970932,25579
68977121,25579
68983314,25578
68989505,25580
68994267,25578
69000479,25581
69006685,25576
69012876,25578
69018092,25578
69024949,25577
69031166,25578
69037326,25575
69043505,25583
69049695,25578
69055885,25576
69062148,25583
69068351,25577
69079994,25580
69086152,25583
69092360,25580
69098550,25579
69104748,25581
69110925,25578
69117073,25586
69123254,25580
69128472,25580
69134698,25581
69140890,25584
69147135,25580
69153353,25586
69159541,25587
69165754,25578
69171934,25580
69178164,25577
69184369,25582
69190554,25582
69208893,25581
69215233,25579
69221494,25591
69227737,25583
69233982,25586
69240889,25584
69247123,25584
69253376,25582
69258826,25580
69264003,25581
69270167,25582
69276420,25585
69282713,25584
69288190,25582
69294437,25583
69300680,25578
69306893,25582
69313131,25575
69319316,25584
69325518,25576
69331759,25579
69337964,25577
69344215,25571
69350461,25569
69356698,25571
69362926,25568
69369139,25572
69375315,25567
69381541,25561
69387756,25565
69392989,25565
69398425,25567
69404662,25571
69410906,25572
69417145,25571
69422372,25567
69428646,25571
69434883,25566
69441127,25571
69447974,25572
69454264,25574
69460493,25568
69466723,25569
69472915,25571
69484575,25567
69490833,25569
69497080,25570
69503303,25570
69509483,25570
69515699,25570
69521934,25569
69527477,25561
69532686,25567
69538919,25567
69545147,25570
69551352,25573
69556818,25567
69563026,25570
69569250,25565
69575425,25569
69581634,25569
69587847,25569
69594097,25566
69600307,25565
69606543,25578
69618071,25575
69624285,25574
69630501,25568
69636752,25577
69642964,25579
69649189,25573
69655370,25573
69662217,25572
69667708,25574
69673901,25572
69680058,25574
69686278,25581
69691519,25572
69697766,25572
69704006,25574
69710248,25567
69716453,25574
69722678,25578
69728900,25578
69735125,25579
69741316,25578
69752933,25578
69759151,25580
69765398,25573
69771629,25582
69777865,25582
69784061,25578
69790301,25577
69796541,25571
69801017,25573
69807160,25577
69813380,25580
69819589,25575
69825861,25581
69832005,25578
69838327,25579
69844531,25576
69850804,25575
69856994,25572
69863205,25577
69869433,25577
69876309,25576
69887782,25583
69893999,25590
69900223,25588
69906428,25584
69912651,25582
69918879,25586
69925111,25580
69931309,25582
69936103,25579
69942320,25579
69948573,25582
69954782,25582
69961009,25574
69966232,25577
69972478,25584
69978727,25583
69984955,25578
69991188,25578
69997382,25579
70003574,25578
70009823,25579
70021555,25578
70027800,25582
70034029,25579
70040249,25580
70046461,25579
70052701,25576
70058900,25588
70065155,25578
70069634,25575
70075842,25572
70082043,25578
70088956,25577
70095168,25577
70100422,25572
70106688,25585
70112891,25578
70119140,25586
70125372,25579
70131528,25582
70137775,25574
70144023,25582
70150281,25576
70156445,25578
70162695,25575
70168937,25578
70175181,25571
70181372,25577
70187650,25574
70193874,25575
70200098,25571
70204899,25579
70211161,25576
70217438,25576
70223678,25571
70229889,25575
70235171,25571
70241390,25573
70247623,25578
70253858,25571
70260057,25574
70266272,25570
70272478,25569
70278757,25569
70285032,25571
70297388,25578
70303652,25583
70309866,25580
70316048,25579
70322242,25576
70328421,25586
70334606,25575
70339046,25580
70345218,25583
70351458,25579
70357703,25577
70363898,25586
70369136,25584
70375331,25587
70381525,25585
70387737,25577
70393894,25579
70400098,25586
70406257,25583
70412489,25584
70418679,25583
70430249,25591
70436461,25587
70442713,25589
70455506,25588
70461743,25595
70467278,25589
70472819,25595
70479016,25590
70485201,25591
70491411,25591
70497624,25592
70502862,25591
70509092,25591
70515858,25589
70522096,25584
70528299,25596
70534488,25594
70540694,25592
70546886,25595
70553131,25592
70559393,25587
70565573,25582
70571786,25583
70577960,25579
70584226,25587
70590399,25583
70596560,25582
70602026,25583
70607555,25579
70613768,25587
70619966,25592
70626174,25584
70632335,25584
70638505,25582
70644751,25581
70650944,25582
70657091,25584
70663273,25585
70669464,25583
70675669,25580
70681852,25583
70688128,25582
70699537,25579
70705787,25580
70711936,25577
70718185,25580
70724941,25584
70731159,25580
70736617,25582
70742166,25583
70748367,25586
70754557,25577
70760766,25583
70766949,25581
70772185,25586
70778344,25586
70784534,25582
70790720,25580
70796855,25580
70803092,25581
70809289,25582
70815440,25582
70821619,25589
70827841,25579
70834061,25581
70840256,25582
70846500,25576
70852717,25584
70858874,25587
70865070,25586
70870521,25582
70876042,25579
70882198,25581
70888423,25584
70894666,25585
70900911,25584
70907104,25583
70913346,25582
70919519,25585
70925736,25578
70931958,25589
70938797,25582
70945019,25576
70951291,25578
70957498,25585
70963723,25583
70975174,25584
70981411,25583
70987629,25589
70993823,25581
71000019,25581
71005461,25588
71010982,25587
71017180,25581
71023384,25586
71029547,25596
71035773,25589
71041932,25590
71047148,25588
71053327,25589
71059503,25582
71065668,25592
71071841,25590
71078028,25592
71084258,25595
71090479,25597
71096709,25592
71108319,25589
71114533,25593
71120756,25590
71126946,25593
71133132,25592
71139290,25591
71143765,25592
71150548,25589
71156747,25598
71162946,25591
71169147,25597
71175366,25595
71181572,25597
71187783,25595
71193980,25589
71200215,25590
71206414,25592
71212582,25596
71218790,25595
71224946,25588
71231161,25596
71242757,25582
71248954,25585
71255097,25581
71261261,25588
71267491,25582
71273717,25587
71278155,25589
71284353,25586
71290547,25587
71296790,25588
71302974,25589
71309173,25587
71315374,25586
71321567,25587
71327725,25588
71333914,25587
71340103,25584
71346265,25585
71352474,25582
71359316,25589
71365497,25588
71376934,25583
71383169,25583
71389337,25585
71395502,25578
71401757,25575
71407932,25576
71412747,25578
71418936,25577
71425127,25582
71431358,25581
71437522,25583
71443741,25575
71449962,25585
71455167,25580
71461386,25577
71467613,25586
71473796,25577
71480007,25576
71486217,25582
71492446,25581
71498674,25580
71504867,25580
71516520,25583
71522740,25583
71528932,25584
71535116,25583
71541331,25579
71546499,25580
71551953,25588
71558104,25582
71564299,25581
71571078,25588
71577230,25581
71583437,25581
71589644,25583
71595806,25584
71602004,25582
71608186,25582
71614369,25590
71620525,25589
71626731,25588
71632928,25580
71639112,25589
71650551,25581
71656737,25588
71662886,25584
71669072,25581
71675274,25584
71680770,25579
71686316,25582
71692550,25587
71705368,25585
71711632,25581
71717871,25584
71724087,25582
71730303,25576
71736466,25587
71742660,25578
71748839,25583
71755080,25583
71761366,25584
71767645,25578
71779120,25589
71786008,25595
71792233,25587
71798501,25592
71804759,25585
71810252,25584
71815843,25587
71822065,25589
71828312,25585
71834554,25588
71840767,25586
71847010,25586
71853236,25586
71859478,25590
71864718,25585
71870947,25587
71877140,25581
71883347,25579
71889593,25591
71895849,25586
71902077,25588
71913799,25585
71920052,25583
71926324,25579
71932569,25589
71938828,25587
71944030,25577
71949528,25579
71955740,25576
71961970,25578
71968200,25577
71974412,25579
71980651,25574
71986859,25576
71993052,25575
71998933,25582
72005182,25576
72011385,25577
72017621,25585
72023846,25575
72030065,25581
72036322,25574
72048077,25582
72054343,25585
72060543,25580
72066775,25577
72073017,25577
72078262,25574
72083747,25581
72089953,25572
72096111,25574
72102273,25576
72108450,25578
72114672,25578
72120875,25576
72127091,25576
72133301,25570
72139487,25575
72145738,25575
72151936,25577
72158114,25577
72164324,25578
72170556,25584
72182013,25579
72188212,25577
72194430,25577
72200612,25579
72207449,25578
72212960,25574
72218524,25572
72224747,25573
72230986,25572
72237202,25576
72243389,25574
72249559,25576
72255785,25568
72261973,25578
72268140,25572
72273321,25571
72279543,25575
72285752,25579
72291898,25571
72298164,25576
72304318,25574
72310507,25573
72316788,25583
72323020,25589
72329227,25584
72335439,25575
72341639,25587
72347083,25585
72352635,25591
72358844,25584
72365041,25582
72371251,25583
72377436,25585
72383681,25582
72389851,25582
72396058,25587
72402238,25583
72407443,25583
72413670,25590
72420492,25582
72426755,25581
72432982,25584
72439244,25583
72445478,25584
72457292,25582
72463576,25588
72469810,25594
72476034,25589
72481250,25593
72486751,25587
72492943,25589
72499153,25591
72505380,25587
72511606,25590
72517845,25592
72524106,25587
72530355,25585
72536592,25593
72541817,25590
72548049,25593
72554241,25589
72560428,25585
72566675,25590
72572888,25584
72579151,25593
72590946,25598
72597193,25596
72603422,25603
72609606,25594
72615057,25601
72621267,25599
72627492,25603
72634328,25602
72640558,25604
72646820,25596
72653025,25603
72659256,25601
72665509,25603
72671693,25601
72676928,25596
72683153,25602
72689385,25604
72695629,25600
72701857,25601
72708075,25599
72714316,25603
72726022,25604
72732210,25602
72738472,25598
72744700,25603
72749916,25602
72756130,25602
72761613,25602
72767872,25602
72774077,25606
72780337,25601
72786517,25605
72792765,25606
72798995,25600
72805248,25604
72810501,25597
72816751,25602
72822987,25601
72829223,25603
72835459,25602
72842213,25596
72848458,25597
72860220,25600
72866437,25597
72872619,25596
72878886,25601
72884072,25593
72890305,25600
72895793,25596
72901945,25593
72908173,25591
72914411,25604
72920640,25594
72926882,25599
72933079,25594
72939260,25592
72952037,25596
72958315,25598
72964553,25597
72970795,25599
72976986,25597
72983231,25601
72989477,25589
72995716,25591
73001958,25595
73008177,25592
73013654,25595
73019845,25595
73025011,25593
73031230,25595
73037414,25594
73043598,25586
73049841,25591
73056008,25596
73062877,25596
73069118,25587
73075300,25595
73080850,25593
73087099,25597
73093292,25590
73099479,25582
73105699,25595
73111936,25593
73118162,25593
73129817,25589
73136052,25593
73142256,25585
73147473,25588
73153677,25591
73159081,25594
73165268,25595
73171468,25597
73177686,25590
73183896,25592
73190065,25599
73196237,25593
73202435,25593
73208653,25589
73214852,25591
73221049,25591
73227192,25587
73233428,25597
73239645,25593
73245844,25592
73252082,25597
73263508,25598
73270290,25605
73276500,25604
73281880,25600
73288088,25595
73294272,25597
73300428,25599
73306651,25600
73312852,25597
73319048,25598
73325234,25599
73331413,25597
73337587,25597
73343817,25598
73350002,25601
73355149,25607
73361351,25599
73367514,25599
73373738,25595
73379933,25605
73386186,25602
73397941,25596
73404174,25604
73410387,25591
73416639,25599
73422841,25596
73428267,25597
73434461,25601
73440682,25600
73446858,25598
73453043,25600
73459197,25592
73465420,25600
73471642,25601
73477815,25607
73484717,25600
73489917,25603
73496101,25599
73502268,25602
73508469,25607
73514646,25597
73520884,25602
73532563,25604
73538774,25608
73545015,25601
73551204,25602
73556426,25604
73562613,25611
73568800,25605
73574968,25609
73581193,25612
73587411,25607
73593601,25606
73599802,25612
73605961,25609
73612178,25612
73618380,25610
73623799,25606
73629994,25617
73636163,25613
73642383,25612
73648611,25614
73654864,25618
73661062,25612
73667271,25606
73673459,25606
73679659,25607
73685821,25606
73691981,25611
73698153,25609
73703332,25606
73709498,25607
73715684,25604
73721906,25610
73728128,25604
73734303,25601
73740504,25606
73746711,25610
73752869,25611
73758318,25608
73764480,25607
73770680,25607
73776921,25603
73783122,25611
73789309,25608
73795545,25606
73806962,25605
73813159,25607
73819321,25604
73824767,25604
73830994,25609
73837193,25612
73843364,25608
73849552,25607
73855782,25594
73862019,25603
73868247,25601
73874490,25603
73880700,25601
73886904,25605
73892091,25601
73898292,25602
73905184,25604
73911360,25603
73917557,25602
73923769,25603
73929962,25604
73941658,25598
73947854,25600
73954039,25605
73959223,25607
73965433,25602
73971644,25601
73977054,25600
73983253,25603
73989441,25603
73995664,25600
74001900,25607
74008099,25603
74014317,25601
74020515,25598
74026737,25595
74032898,25602
74039103,25598
74045290,25596
74051482,25598
74057687,25606
74063873,25605
74070051,25604
74076240,25600
74082455,25607
74088649,25607
74093856,25605
74100086,25603
74106240,25601
74111752,25600
74118627,25601
74124804,25606
74131047,25599
74137230,25603
74143412,25597
74149565,25601
74155787,25611
74161970,25598
74167163,25611
74173338,25605
74179560,25605
74185804,25608
74191969,25607
74205026,25608
74211238,25615
74217459,25608
74222666,25605
74228871,25606
74235114,25606
74240590,25616
74246806,25611
74253031,25605
74259235,25603
74265434,25602
74271632,25606
74277855,25612
74284034,25603
74290194,25604
74295404,25609
74301589,25605
74307775,25602
74313963,25610
74320182,25607
74326411,25608
74333305,25603
74344943,25616
74351119,25618
74357319,25617
74363481,25620
74369691,25616
74375885,25614
74382074,25616
74388250,25612
74394452,25617
74400679,25612
74406875,25611
74413040,25613
74419198,25613
74425356,25614
74430553,25612
74436752,25614
74442911,25613
74449091,25614
74455283,25611
74461490,25608
74467682,25619
74473843,25617
74480061,25624
74486269,25622
74492483,25620
74497910,25625
74504106,25625
74510316,25621
74516494,25621
74522736,25615
74528953,25619
74535167,25623
74541939,25615
74548120,25613
74554310,25618
74560525,25617
74565757,25619
74571929,25612
74578136,25611
74584343,25623
74590555,25617
74596746,25614
74602914,25614
74609147,25614
74620916,25610
74627106,25605
74632560,25607
74638766,25613
74644937,25617
74650468,25617
74656714,25614
74662870,25612
74669075,25608
74675273,25612
74681465,25611
74687642,25607
74693827,25609
74699062,25603
74705249,25605
74711400,25608
74717572,25611
74723793,25604
74730005,25610
74736212,25606
74742429,25605
74754661,25603
74760859,25616
74766404,25613
74772554,25618
74778793,25615
74783964,25602
74790201,25614
74796408,25613
74802623,25611
74808793,25610
74814957,25614
74821168,25608
74827370,25615
74833585,25607
74839771,25607
74845954,25613
74852188,25609
74858400,25606
74864591,25615
74870800,25605
74876968,25601
74888591,25606
74894807,25607
74900029,25606
74906226,25608
74912455,25605
74918644,25611
74924856,25605
74931065,25605
74937261,25610
74943452,25606
74949645,25610
74955854,25615
74962664,25617
74968822,25612
74974258,25605
74980439,25605
74986672,25602
74992914,25609
74999152,25605
75005342,25612
75011475,25608
75022936,25610
75029131,25614
75034549,25609
75040767,25613
75046968,25611
75053174,25608
75058389,25607
75064575,25612
75070759,25607
75076970,25600
75083183,25611
75089384,25611
75095531,25605
75101729,25610
75107886,25611
75114077,25609
75120269,25609
75126459,25614
75132639,25612
75138833,25610
75145001,25610
75156666,25610
75162847,25601
75169044,25610
75175890,25610
75182077,25609
75188263,25611
75193518,25606
75199708,25614
75205925,25614
75212136,25614
75218331,25613
75224508,25609
75230720,25609
75236946,25615
75243161,25610
75248646,25607
75254883,25616
75261065,25613
75267266,25607
75273458,25608
75279639,25605
75291010,25614
75297222,25615
75303408,25615
75308821,25609
75315079,25615
75321305,25615
75327476,25619
75333705,25618
75339913,25620
75346097,25619
75352326,25614
75358486,25613
75364697,25616
75370909,25622
75377108,25614
75383301,25611
75389514,25612
75395732,25612
75401946,25611
75408174,25614
75414371,25611
75425805,25601
75431958,25598
75438150,25606
75450928,25600
75457107,25602
75462642,25599
75468902,25599
75475084,25606
75481290,25603
75487477,25598
75493639,25601
75499859,25603
75506027,25601
75511234,25604
75517431,25605
75523571,25603
75529790,25608
75536042,25600
75542274,25592
75553904,25602
75560113,25603
75566328,25601
75572469,25600
75577723,25600
75583865,25602
75590090,25606
75596253,25601
75603125,25599
75609306,25599
75615523,25598
75621787,25597
75627960,25600
75634152,25596
75640359,25603
75646535,25600
75652753,25599
75658920,25597
75665125,25596
75671284,25594
75677487,25593
75689150,25595
75695310,25596
75701478,25595
75707678,25597
75712880,25593
75719080,25593
75725314,25594
75731514,25593
75737008,25594
75743194,25596
75749422,25590
75755648,25594
75761859,25592
75768045,25596
75774215,25602
75780407,25598
75785638,25597
75791853,25594
75798069,25593
75804300,25596
75811133,25598
75822965,25597
75829173,25605
75835374,25591
75841563,25594
75847048,25601
75853225,25602
75859439,25593
75865670,25597
75870898,25599
75877140,25599
75883349,25603
75889564,25593
75895757,25607
75901921,25603
75908195,25598
75914378,25604
75920575,25600
75926750,25599
75932963,25599
75939214,25601
75945410,25598
75957050,25602
75963222,25603
75969477,25595
75975677,25595
75980884,25591
75987113,25601
75993305,25604
75999501,25600
76004930,25604
76011102,25600
76017318,25603
76024194,25592
76030428,25604
76036639,25602
76042837,25598
76049027,25601
76055249,25607
76060463,25604
76066714,25599
76072892,25599
76079101,25594
76085285,25601
76091504,25609
76097719,25603
76103900,25611
76110131,25614
76115542,25605
76121806,25611
76128007,25604
76134205,25607
76139452,25601
76145641,25612
76151824,25607
76158029,25608
76164258,25605
76170469,25609
76176593,25607
76182852,25611
76189125,25613
76194580,25606
76200766,25610
76207020,25613
76213214,25607
76219426,25604
76225594,25608
76231761,25604
76238548,25617
76244753,25610
76249974,25610
76256193,25607
76262426,25607
76268586,25608
76274045,25608
76280205,25610
76286393,25606
76292551,25606
76298796,25607
76304976,25610
76311148,25610
76317346,25607
76323501,25608
76328726,25610
76334910,25603
76341149,25606
76347345,25606
76353559,25607
76359760,25605
76365941,25600
76372143,25598
76378346,25604
76383790,25605
76389969,25599
76396188,25604
76402377,25607
76408543,25604
76414772,25601
76420973,25603
76427152,25603
76433338,25601
76439528,25596
76446349,25604
76452587,25602
76458820,25604
76464077,25606
76470260,25606
76476456,25604
76482626,25601
76488835,25601
76494988,25603
76506597,25608
76512761,25613
76517971,25601
76524220,25604
76530403,25604
76536639,25606
76542846,25608
76548272,25603
76554439,25601
76560639,25607
76566834,25602
76572993,25607
76579207,25600
76585396,25602
76591657,25596
76597912,25606
76604082,25605
76610274,25604
76616450,25600
76622673,25603
76628888,25599
76640284,25612
76646479,25605
76652680,25612
76659534,25608
76665764,25610
76671947,25609
76678185,25608
76683660,25607
76696484,25615
76702715,25611
76708952,25609
76715221,25607
76721448,25615
76727677,25611
76733125,25607
76739323,25614
76745521,25608
76751775,25608
76758005,25609
76769457,25612
76775674,25614
76781855,25606
76787346,25614
76793509,25608
76799729,25616
76805876,25615
76812091,25610
76818290,25603
76824483,25609
76830722,25611
76836927,25610
76843112,25612
76849338,25614
76855521,25602
76861763,25610
76866976,25609
76873812,25612
76880059,25621
76886257,25610
76892433,25617
76904077,25620
76910276,25610
76916488,25617
76921666,25619
76927870,25618
76934019,25621
76940231,25618
76946441,25618
76951872,25622
76958061,25621
76964244,25620
76970365,25622
76976589,25623
76982814,25633
76989015,25623
76995190,25622
77001372,25625
77007585,25618
77013791,25621
77020005,25623
77026167,25622
77032385,25625
77038579,25624
77044780,25628
77050973,25620
77056149,25624
77062353,25625
77068542,25627
77074722,25624
77080856,25623
77086973,25621
77093244,25619
77099433,25617
77105627,25619
77111814,25623
77118002,25622
77124219,25619
77130430,25618
77136577,25618
77142044,25625
77148229,25621
77154408,25619
77160588,25622
77166841,25628
77178281,25619
77184491,25618
77189937,25621
77196150,25622
77202358,25625
77208556,25625
77214763,25620
77220903,25620
77227124,25618
77233311,25622
77239484,25620
77245689,25620
77251843,25620
77258035,25622
77264194,25624
77270420,25625
77275611,25617
77281860,25623
77288088,25622
77294949,25625
77301202,25623
77312849,25623
77319062,25622
77324267,25624
77330474,25621
77336682,25621
77342917,25625
77349115,25625
77355301,25622
77360769,25625
77366976,25619
77373171,25626
77379359,25619
77385509,25626
77391708,25623
77397904,25626
77404092,25625
77410297,25621
77416501,25623
77422667,25631
77428872,25624
77435050,25625
77441272,25621
77447477,25622
77453659,25623
77458881,25625
77465087,25624
77471376,25624
77477559,25618
77483776,25623
77489945,25623
77495378,25624
77501535,25622
77508366,25624
77514550,25627
77520773,25624
77526979,25621
77533114,25621
77539329,25636
77545536,25623
77550790,25630
77556962,25622
77563213,25621
77569397,25620
77575568,25629
77587222,25630
77593372,25628
77599589,25630
77605815,25628
77611974,25623
77618216,25626
77624415,25629
77629593,25625
77635786,25631
77641947,25633
77648120,25626
77654298,25630
77660477,25636
77666722,25635
77672898,25629
77679114,25633
77684590,25634
77690763,25632
77696945,25633
77703128,25636
77709307,25628
77715465,25628
77722262,25641
77728496,25635
77733701,25637
77739911,25634
77746114,25631
77752306,25634
77758491,25636
77764696,25634
77770862,25639
77777063,25636
77783294,25635
77789523,25634
77795757,25642
77801979,25640
77808218,25636
77814438,25639
77819852,25638
77826057,25639
77832213,25634
77838374,25638
77844529,25639
77850735,25641
77862135,25646
77867584,25642
77873792,25635
77879992,25642
77886180,25640
77892378,25641
77898580,25642
77903779,25643
77909985,25641
77916211,25646
77922373,25639
77929219,25642
77935479,25640
77948566,25638
77954842,25643
77961058,25642
77967263,25644
77973442,25644
77979631,25647
77991063,25640
77996534,25646
78002777,25641
78009030,25639
78015246,25638
78021496,25637
78027723,25642
78033863,25639
78040054,25641
78046199,25640
78052364,25632
78058531,25646
78064735,25643
78070931,25646
78077204,25639
78083429,25640
78088649,25644
78094831,25645
78101032,25645
78107218,25642
78113394,25646
78124997,25645
78131166,25641
78137375,25641
78143623,25638
78150498,25641
78156719,25639
78162935,25639
78169152,25639
78174375,25637
78180549,25640
78186781,25644
78192928,25642
78199142,25642
78205345,25640
78211536,25642
78217686,25641
78223101,25643
78229288,25631
78235479,25633
78241667,25639
78247903,25641
78259305,25642
78265504,25641
78270932,25641
78277140,25647
78283333,25645
78289563,25644
78295812,25643
78302038,25642
78308213,25645
78314382,25644
78320559,25640
78326756,25640
78332992,25643
78339185,25641
78345419,25638
78351613,25641
78357784,25639
78364009,25646
78370186,25637
78376370,25646
78382540,25643
78393981,25645
78400206,25644
78405676,25641
78411868,25647
78418084,25640
78424282,25636
78430483,25645
78436709,25645
78442869,25643
78448065,25642
78454273,25642
78460502,25646
78466683,25647
78472870,25643
78479081,25647
78485285,25643
78491493,25640
78497690,25643
78503892,25649
78510098,25646
78516308,25647
78522479,25640
78528648,25655
78534849,25651
78540289,25652
78546460,25645
78552674,25653
78558929,25653
78565144,25652
78572011,25648
78578189,25643
78583415,25651
78589581,25651
78595793,25648
78601987,25650
78608238,25653
78614447,25650
78620629,25654
78626807,25656
78632258,25657
78638438,25651
78644603,25648
78650819,25652
78657021,25655
78668406,25655
78673861,25656
78680053,25663
78686224,25660
78692415,25651
78698634,25651
78704869,25657
78711084,25656
78716282,25655
78722479,25652
78728679,25655
78734869,25654
78741118,25650
78747317,25647
78753526,25650
78759727,25649
78765908,25652
78772115,25650
78778971,25645
78785246,25647
78791437,25654
78803042,25645
78808282,25655
78814484,25646
78820653,25642
78826840,25649
78832991,25647
78839216,25652
78845448,25645
78850873,25646
78857063,25653
78863229,25647
78869425,25650
78875679,25648
78881910,25649
78888154,25648
78894331,25646
78900523,25646
78905689,25645
78911871,25652
78918062,25647
78924243,25647
78930404,25644
78942070,25645
78948218,25643
78954458,25648
78960671,25641
78966879,25646
78973066,25650
78979254,25647
78985478,25649
78992293,25647
78998532,25652
79004786,25644
79010985,25650
79017179,25651
79023347,25646
79029541,25646
79035775,25643
79040957,25648
79047151,25648
79053371,25649
79059574,25642
79065738,25645
79071912,25642
79078131,25642
79083566,25644
79089797,25642
79096010,25640
79102203,25638
79108350,25645
79114506,25636
79120720,25646
79125908,25637
79132091,25638
79138310,25637
79144516,25645
79150761,25640
79156937,25638
79163179,25640
79169451,25641
79174936,25642
79181139,25644
79193958,25642
79200219,25640
79207121,25643
79212623,25643
79218869,25642
79225090,25634
79231313,25638
79237572,25639
79243791,25632
79249982,25641
79255192,25637
79261439,25636
79267655,25641
79273854,25642
79280089,25638
79286331,25638
79292536,25640
79298799,25634
79304300,25632
79310527,25646
79316741,25643
79322945,25637
79329164,25633
79335395,25635
79346159,25637
79352405,25646
79358628,25645
79364915,25648
79371158,25643
79377414,25642
79383653,25640
79388869,25642
79395076,25651
79401306,25640
79407523,25638
79413778,25643
79420625,25644
79426936,25643
79433182,25641
79438711,25641
79444931,25641
79451122,25641
79457285,25644
79463528,25638
79469721,25644
79480460,25646
79486689,25643
79492931,25638
79499154,25643
79505388,25640
79511607,25641
79517843,25642
79524065,25640
79530316,25641
79536560,25637
79542788,25642
79548999,25641
79555151,25644
79561411,25643
79567648,25637
79572905,25640
79579169,25642
79585404,25638
79591599,25639
79597875,25644
79604083,25641
79614784,25634
79620999,25636
79627236,25629
79634080,25635
79640358,25626
79646495,25629
79652728,25634
79658882,25633
79664334,25632
79670536,25630
79676719,25638
79682960,25627
79689147,25631
79695350,25631
79701570,25632
79707790,25629
79713975,25633
79720120,25637
79726316,25627
79732511,25640
79738708,25628
79749363,25621
79755556,25628
79761776,25623
79767940,25627
79774126,25625
79780320,25630
79786530,25623
79792709,25627
79797863,25626
79804039,25630
79810251,25625
79816476,25623
79822708,25620
79828907,25627
79835144,25624
79841324,25625
79847469,25628
79853652,25625
79859832,25626
79866053,25629
79872258,25624
79878463,25628
79883923,25619
79890137,25619
79896328,25628
79902519,25622
79908764,25619
79914976,25620
79921182,25621
79927346,25620
79932578,25620
79938773,25622
79944957,25624
79951188,25621
79957380,25622
79963579,25613
79969803,25623
79976007,25624
79981475,25624
79987691,25627
79993874,25623
80000071,25616
80006222,25624
80012422,25626
80017653,25625
80023857,25623
80030022,25613
80036263,25618
80042466,25624
80048639,25618
80055454,25623
80061658,25621
80067094,25621
80073240,25617
80079435,25621
80085616,25621
80091836,25624
80098061,25623
80104260,25619
80110435,25623
80115675,25621
80121856,25626
80128058,25618
80134247,25623
80140448,25621
80146594,25619
80152073,25623
80163522,25622
80169747,25621
80175943,25628
80182169,25626
80188362,25624
80194528,25622
80200689,25624
80206147,25619
80212290,25625
80218508,25628
80224718,25620
80230898,25621
80237088,25623
80243289,25632
80249469,25620
80254668,25623
80260919,25622
80267719,25622
80273904,25624
80280103,25620
80286289,25619
80297995,25607
80304190,25610
80310378,25615
80316529,25611
80322693,25612
80328865,25607
80335057,25602
80340293,25611
80346480,25608
80352721,25608
80358955,25608
80365143,25601
80371323,25606
80377506,25607
80383743,25601
80389148,25603
80395326,25608
80401510,25603
80407761,25604
80413876,25605
80420160,25604
80426355,25605
80432545,25600
80445379,25601
80451653,25597
80457870,25598
80464064,25598
80469268,25608
80475461,25601
80481656,25598
80488488,25593
80494611,25597
80500834,25598
80507057,25599
80513282,25594
80518714,25598
80524899,25594
80531102,25597
80537290,25598
80543497,25589
80549701,25595
80555878,25597
80561104,25594
80567350,25584
80573539,25590
80579732,25590
80585899,25584
80592089,25593
80598308,25585
80603788,25585
80609983,25586
80616175,25591
80622349,25587
80628569,25588
80634808,25577
80641000,25589
80647176,25590
80652403,25589
80658603,25585
80664815,25580
80670989,25586
80677219,25588
80683426,25585
80689646,25581
80695811,25588
80707491,25581
80713716,25579
80719876,25589
80726029,25586
80732205,25579
80737403,25590
80743590,25588
80749783,25589
80755953,25587
80762170,25587
80768377,25583
80774583,25590
80780788,25585
80786220,25589
80792394,25584
80798561,25583
80804777,25587
80810983,25581
80817168,25584
80823368,25580
80828617,25583
80834867,25583
80841116,25586
80847330,25586
80853540,25588
80859739,25582
80865902,25584
80872086,25588
80878290,25584
80884492,25587
80890726,25590
80896891,25589
80903146,25583
80910022,25591
80916248,25588
80921809,25584
80927954,25591
80934123,25583
80940326,25588
80946522,25584
80952685,25583
80958875,25588
80964371,25586
80970548,25584
80981980,25569
80988182,25571
80994356,25577
81000534,25571
81005960,25569
81012171,25570
81018392,25568
81024593,25569
81030842,25572
81037060,25568
81043234,25568
81049407,25571
81055575,25570
81061750,25567
81067934,25568
81074086,25564
81080275,25560
81086447,25567
81092576,25567
81097826,25572
81104033,25564
81115691,25554
81122539,25550
81128729,25551
81134934,25552
81141132,25553
81147338,25554
81153544,25556
81159775,25551
81166019,25556
81172203,25552
81178385,25549
81184594,25554
81190831,25549
81196034,25555
81202230,25556
81208425,25556
81214624,25555
81220838,25550
81227043,25553
81232549,25546
81238799,25557
81250247,25544
81256463,25545
81262618,25538
81268842,25539
81275038,25545
81280510,25540
81286687,25541
81292899,25543
81299087,25546
81305280,25550
81311482,25549
81317702,25546
81323890,25537
81330074,25547
81336252,25542
81342451,25545
81348602,25540
81354807,25543
81361021,25539
81366220,25543
81372413,25540
81378628,25541
81384848,25541
81391015,25537
81397230,25536
81403408,25541
81409588,25538
81415051,25537
81421224,25536
81427405,25536
81433591,25531
81439821,25536
81446010,25532
81452182,25537
81458364,25533
81463580,25531
81469788,25537
81475999,25531
81482234,25536
81488410,25538
81494579,25537
81500803,25535
81506984,25535
81513203,25534
81524925,25526
81531131,25547
81537316,25534
81544130,25535
81549379,25536
81555590,25536
81561847,25538
81568078,25536
81574297,25533
81580536,25529
81586778,25529
81593008,25535
81598477,25531
81604706,25534
81610909,25537
81617128,25536
81623386,25542
81629626,25533
81635892,25533
81641122,25537
81647380,25538
81659060,25520
81665224,25524
81671476,25518
81677687,25514
81690504,25514
81696776,25518
81703048,25515
81709294,25518
81715557,25518
81721808,25517
81728064,25515
81734331,25521
81740570,25519
81746797,25522
81752985,25519
81759740,25518
81765976,25519
81771552,25517
81777758,25524
81789230,25501
81795445,25498
81801682,25504
81807898,25500
81814166,25500
81819617,25500
81825847,25505
81832080,25502
81838317,25500
81844572,25505
81850789,25501
81857030,25503
81863271,25499
81868454,25499
81874627,25504
81880806,25502
81887033,25501
81893247,25500
81899421,25502
81904856,25503
81911106,25496
81922499,25498
81928723,25493
81934931,25495
81941118,25493
81947320,25496
81953521,25494
81959681,25489
81965913,25487
81972766,25494
81979000,25490
81985238,25493
81991428,25502
81997672,25487
82003148,25494
82009293,25489
82015546,25490
82021757,25494
82027956,25493
82034154,25504
82039382,25491
82045573,25495
82057245,25485
82063440,25488
82069600,25485
82075815,25491
82081991,25486
82088177,25489
82094355,25490
82100566,25487
82106803,25490
82113024,25488
82119178,25487
82125341,25484
82131554,25490
82136736,25487
82142934,25493
82149114,25485
82155329,25489
82161529,25484
82167718,25492
82173148,25491
82179338,25485
82186107,25498
82192283,25491
82198484,25487
82204695,25485
82210923,25485
82217114,25489
82223321,25490
82228541,25490
82234737,25489
82240903,25490
82247120,25481
82253336,25491
82259514,25486
82265664,25490
82271136,25494
82277303,25493
82283525,25487
82289732,25489
82295915,25485
82302106,25495
82307292,25485
82313529,25494
82319742,25489
82325907,25490
82332098,25485
82338299,25487
82344493,25487
82350707,25482
82356887,25489
82362296,25485
82368502,25482
82374730,25480
82380920,25487
82387126,25481
82393915,25483
82400108,25480
82405331,25482
82411533,25488
82417670,25489
82423888,25488
82430074,25480
82436286,25478
82441737,25482
82447886,25480
82454120,25479
82460306,25485
82466501,25480
82472721,25478
82478934,25474
82485129,25471
82491340,25471
82496566,25468
82502780,25476
82509024,25472
82515275,25476
82521500,25474
82527751,25465
82534031,25473
82540249,25471
82546431,25471
82552664,25468
82558891,25472
82565122,25466
82571343,25473
82576841,25475
82583045,25469
82589296,25468
82600845,25469
82607734,25468
82613959,25463
82620163,25464
82626375,25471
82631853,25462
82638015,25467
82644197,25464
82650360,25464
82656561,25464
82662803,25466
82669013,25466
82675184,25459
82680445,25462
82686614,25461
82692825,25468
82698994,25465
82705226,25462
82710718,25462
82716958,25461
82723211,25466
82729466,25462
82735671,25464
82741905,25466
82748128,25472
82754290,25469
82760544,25467
82765781,25469
82772025,25466
82778283,25472
82784501,25470
82790761,25469
82797022,25469
82803224,25472
82809441,25472
82814908,25463
82821815,25470
82828017,25466
82834265,25465
82840562,25470
82845825,25467
82852071,25469
82858312,25472
82870084,25471
82876272,25475
82882417,25470
82888629,25470
82894804,25470
82900295,25467
82906561,25478
82912788,25468
82919029,25474
82925219,25466
82931452,25467
82943636,25467
82949898,25472
82956077,25472
82962335,25474
82968562,25470
82974048,25471
82980326,25474
82986595,25476
82992851,25474
82999030,25475
83005276,25477
83011570,25474
83017781,25477
83023999,25470
83030196,25476
83037065,25472
83043340,25491
83049601,25477
83055844,25477
83062074,25477
83068308,25479
83074588,25480
83079838,25479
83086058,25484
83092281,25483
83098488,25481
83104724,25478
83110239,25473
83116497,25480
83122748,25479
83129030,25486
83140494,25479
83146748,25480
83152946,25483
83159171,25487
83164636,25478
83170860,25472
83177055,25480
83183310,25477
83189575,25481
83195827,25476
83202053,25472
83208274,25477
83213486,25478
83219738,25472
83225976,25474
83232194,25483
83238424,25480
83243934,25475
83250817,25472
83257011,25473
83263266,25477
83274687,25466
83280877,25473
83287103,25468
83293324,25465
83298771,25466
83304978,25468
83311111,25468
83317322,25468
83323536,25469
83329807,25473
83336067,25469
83342338,25463
83347610,25468
83353825,25468
83360031,25467
83366240,25474
83372458,25471
83377934,25468
83384181,25476
83390410,25472
83396655,25472
83408166,25461
83414402,25467
83420669,25471
83426907,25461
83433146,25465
83439378,25474
83445646,25469
83451905,25471
83458190,25464
83465087,25469
83471322,25464
83477500,25469
83482984,25466
83489209,25466
83495466,25472
83501681,25464
83507940,25471
83513492,25468
83519748,25469
83525953,25469
83532234,25465
83543687,25476
83549962,25473
83556177,25472
83562403,25468
83568616,25469
83574097,25471
83580305,25473
83586538,25468
83592756,25471
83598994,25476
83605204,25472
83611448,25474
83616651,25465
83622851,25468
83629088,25473
83635337,25472
83641520,25474
83647003,25475
83653223,25472
83659458,25465
83665714,25481
83678020,25478
83684243,25475
83690462,25478
83696694,25477
83702911,25477
83708118,25477
83714360,25480
83720619,25478
83726857,25481
83733080,25478
83739291,25480
83745495,25479
83751001,25475
83757216,25481
83763448,25483
83769635,25481
83775808,25480
83781031,25475
83787257,25479
83793490,25482
83799755,25482
83811446,25485
83817718,25487
83823912,25483
83830113,25483
83836304,25486
83842498,25487
83848738,25490
83854954,25485
83861136,25488
83867412,25484
83873664,25488
83879922,25491
83885932,25486
83892180,25492
83898437,25484
83904647,25486
83910900,25491
83916126,25488
83922339,25494
83928596,25492
83934841,25487
83946521,25498
83952747,25503
83958949,25499
83965170,25502
83971396,25500
83976641,25500
83982877,25496
83989089,25498
83995328,25497
84001535,25492
84007783,25499
84014021,25494
84020260,25494
84026413,25493
84032676,25499
84038929,25502
84045139,25495
84050575,25495
84056815,25497
84063035,25494
84069228,25499
84080728,25498
84086949,25499
84093157,25495
84100050,25492
84106264,25491
84111747,25496
84117939,25494
84124147,25495
84130416,25500
84136650,25494
84142897,25494
84149172,25496
84155343,25497
84160572,25495
84166797,25497
84173036,25501
84179274,25494
84184768,25492
84197602,25491
84203944,25491
84210227,25502
84216499,25496
84222772,25494
84229008,25490
84235255,25495
84240462,25500
84246684,25499
84252938,25499
84259178,25495
84265420,25495
84271611,25489
84277860,25485
84284124,25494
84289635,25490
84295875,25494
84302078,25495
84308267,25498
84313515,25493
84320372,25498
84326581,25499
84332786,25494
84339028,25497
84350704,25498
84356958,25495
84363173,25494
84369439,25501
84375708,25503
84381951,25495
84388177,25500
84394424,25494
84400642,25497
84406917,25501
84413104,25496
84419364,25501
84424581,25503
84430865,25497
84437080,25502
84443322,25500
84448782,25502
84455004,25499
84461238,25498
84467501,25502
84473745,25500
84485219,25513
84491476,25508
84497705,25515
84503944,25511
84509410,25513
84515598,25509
84521820,25511
84528051,25507
84534975,25515
84541187,25515
84547435,25512
84553678,25509
84558912,25504
84565191,25512
84571385,25506
84577587,25503
84583056,25512
84589270,25507
84595516,25511
84601747,25514
84607967,25513
84619418,25517
84625601,25519
84631803,25520
84638046,25523
84644288,25518
84650515,25520
84656763,25521
84662946,25525
84669156,25517
84675415,25518
84681625,25520
84687894,25522
84693419,25520
84699650,25524
84705857,25522
84712074,25524
84717276,25524
84723431,25523
84729646,25519
84735905,25521
84742747,25521
84754548,25535
84760768,25534
84766991,25527
84773186,25531
84779386,25532
84784624,25531
84790827,25533
84797058,25531
84803289,25530
84809491,25535
84815760,25535
84822033,25535
84827542,25536
84833788,25533
84840010,25534
84846238,25536
84851459,25536
84857696,25535
84863953,25539
84870177,25531
84876352,25537
84888071,25538
84894300,25538
84900555,25536
84906785,25537
84913028,25536
84918261,25537
84924479,25538
84930679,25539
84936953,25536
84943164,25537
84949404,25536
84956243,25529
84961782,25531
84967986,25533
84974210,25539
84980454,25533
84985657,25534
84991899,25541
84998141,25537
85004390,25535
85010621,25538
85022394,25541
85028613,25541
85034842,25540
85041039,25537
85047302,25532
85053545,25539
85059769,25537
85065991,25537
85072218,25538
85078470,25541
85084653,25537
85090909,25536
85096156,25538
85102391,25537
85108625,25538
85114881,25537
85121096,25530
85127285,25532
85133492,25535
85139735,25531
85145988,25538
85157794,25536
85164020,25539
85170910,25540
85177143,25536
85183354,25547
85189588,25537
85195842,25547
85202074,25542
85208295,25539
85214556,25537
85220757,25544
85227002,25539
85232240,25538
85238487,25540
85244752,25533
85250246,25543
85256462,25542
85262680,25539
85268909,25537
85275138,25540
85281367,25541
85292886,25540
85299143,25538
85305364,25550
85311589,25548
85317831,25548
85324070,25547
85329550,25542
85335775,25546
85341966,25550
85348202,25548
85354403,25548
85360662,25547
85365921,25546
85372161,25548
85378390,25552
85384538,25547
85390761,25549
85396981,25552
85403222,25550
85409471,25551
85415766,25548
85427207,25558
85433449,25552
85446300,25553
85452585,25553
85458829,25559
85465062,25549
85471275,25557
85477485,25557
85483772,25556
85490017,25555
85495544,25555
85501803,25552
85508071,25555
85513281,25553
85519511,25553
85525755,25548
85531949,25557
85538178,25561
85544397,25552
85556089,25561
85562339,25565
85568608,25562
85574860,25561
85581100,25563
85587305,25560
85593545,25565
85598779,25560
85605692,25560
85611975,25557
85618206,25563
85624439,25566
85629911,25566
85636137,25560
85642344,25561
85647591,25567
85653822,25559
85660000,25563
85666247,25567
85672389,25566
85678588,25564
85690244,25569
85696476,25566
85702669,25571
85708862,25570
85715041,25571
85721290,25575
85727541,25571
85733764,25566
85739981,25570
85746235,25570
85752515,25575
85758750,25576
85763983,25571
85770202,25574
85776409,25571
85781899,25573
85788127,25570
85794340,25570
85800590,25571
85806768,25566
85812988,25566
85825151,25575
85831404,25575
85837612,25565
85843839,25571
85850070,25568
85856333,25569
85862556,25572
85868071,25567
85874301,25568
85880549,25571
85886774,25571
85893023,25568
85898286,25566
85904535,25575
85910756,25572
85916242,25569
85922457,25572
85928661,25570
85934857,25570
85941003,25573
85947188,25574
85953455,25575
85959687,25572
85965940,25578
85972180,25572
85978436,25566
85984665,25575
85990886,25575
85997103,25569
86002309,25576
86008529,25573
86014776,25567
86021003,25573
86027816,25575
86033277,25570
86039485,25577
86045747,25577
86050971,25576
86057187,25577
86063398,25575
86069575,25578
86075790,25582
86082009,25572
86093712,25576
86099951,25582
86106173,25578
86112436,25580
86118699,25578
86124935,25571
86131145,25574
86137382,25576
86143632,25576
86149886,25578
86156143,25576
86162363,25580
86167589,25576
86173836,25573
86180101,25579
86185556,25578
86191799,25578
86197978,25579
86204216,25577
86210490,25576
86216657,25580
86228074,25583
86234317,25586
86241153,25583
86247398,25585
86253564,25590
86259811,25587
86266032,25587
86272243,25584
86277695,25585
86283910,25589
86290145,25580
86296391,25587
86301665,25586
86307895,25586
86314164,25585
86319642,25588
86325876,25590
86332091,25588
86338346,25585
86344590,25590
86350819,25582
86357042,25582
86363307,25596
86369538,25592
86375782,25593
86381981,25591
86388213,25592
86394430,25594
86400679,25598
86406902,25596
86412169,25589
86418389,25587
86424631,25592
86430875,25594
86436301,25595
86442545,25594
86448775,25595
86454972,25588
86461196,25593
86467423,25599
86473643,25592
86479853,25595
86486045,25595
86492302,25593
86503829,25605
86510084,25605
86516319,25604
86522510,25603
86528765,25607
86535010,25601
86541204,25602
86546705,25610
86552911,25602
86559131,25605
86565382,25606
86570655,25608
86576903,25603
86583146,25597
86588622,25603
86594858,25604
86601075,25601
86607276,25606
86613497,25600
86619703,25604
86625938,25601
86637410,25602
86643616,25608
86649882,25603
86656108,25602
86662309,25604
86669229,25603
86675452,25603
86680919,25602
86687154,25608
86699969,25604
86706270,25604
86712579,25602
86718100,25606
86724367,25603
86730597,25600
86736841,25609
86743077,25604
86749309,25600
86755545,25597
86767039,25602
86773296,25607
86779538,25602
86785777,25603
86791993,25605
86798203,25607
86804413,25604
86809890,25599
86816100,25605
86822313,25606
86828552,25600
86834789,25596
86840063,25597
86846250,25600
86851746,25595
86857983,25596
86864192,25600
86870456,25593
86876679,25601
86882897,25600
86889741,25598
86901209,25600
86907438,25605
86913678,25605
86919958,25596
86926195,25602
86932437,25599
86938654,25601
86944153,25601
86950367,25603
86956564,25606
86962790,25601
86968968,25603
86974252,25601
86980475,25600
86985941,25599
86992169,25601
86998366,25603
87004597,25600
87010828,25602
87017005,25599
87023206,25601
87029473,25602
87035722,25606
87041968,25601
87048179,25609
87054400,25602
87060637,25606
87066885,25612
87073070,25602
87079279,25608
87085496,25613
87091711,25604
87098629,25608
87104876,25609
87110111,25604
87116357,25611
87121836,25609
87128057,25608
87134282,25604
87140468,25606
87146652,25607
87152899,25605
87159136,25608
87165334,25606
87176893,25613
87183114,25604
87189370,25606
87195593,25604
87201826,25605
87208048,25604
87213545,25607
87219795,25610
87226017,25610
87232281,25608
87238490,25603
87243732,25605
87250016,25598
87255537,25603
87261795,25609
87268026,25600
87274239,25603
87280464,25608
87286710,25606
87292943,25599
87299186,25602
87311325,25614
87317601,25607
87323796,25608
87330023,25612
87336256,25619
87342466,25612
87347940,25617
87354126,25613
87360317,25615
87366577,25612
87372831,25613
87378065,25613
87384294,25614
87389730,25609
87395917,25611
87402148,25617
87408366,25612
87414614,25613
87420738,25615
87426981,25612
87433154,25608
87444660,25613
87450883,25609
87457169,25609
87463393,25611
87469597,25608
87475845,25611
87482079,25610
87488331,25608
87494532,25604
87500807,25610
87507047,25608
87512544,25611
87518790,25611
87524953,25612
87531211,25609
87537460,25612
87543681,25610
87549915,25602
87556102,25610
87562264,25615
87568529,25611
87580032,25607
87586289,25609
87592518,25609
87598769,25611
87605019,25607
87611242,25604
87617475,25609
87622941,25607
87629154,25608
87635417,25610
87641685,25603
87646916,25611
87653122,25607
87658612,25612
87664890,25606
87671127,25606
87677323,25607
87683587,25610
87689814,25609
87695995,25608
87702229,25606
87713706,25603
87719995,25604
87726235,25604
87732446,25606
87739200,25605
87745376,25604
87751563,25609
87757049,25604
87763286,25602
87769540,25605
87775696,25608
87781931,25604
87788075,25600
87793335,25605
87799588,25603
87805842,25611
87812087,25605
87818306,25603
87824515,25607
87830727,25600
87836978,25604
87848642,25611
87854861,25608
87861097,25606
87867331,25606
87873587,25606
87879829,25607
87886016,25607
87891212,25607
87897424,25611
87903667,25606
87909934,25606
87916208,25609
87921682,25605
87926909,25608
87933118,25601
87939340,25608
87952105,25607
87959009,25607
87965267,25616
87971481,25619
87977663,25610
87983899,25608
87990114,25614
87996354,25607
88002546,25608
88008757,25608
88014918,25607
88020355,25608
88026574,25613
88032773,25611
88038954,25611
88045191,25607
88050435,25610
88056625,25607
88062812,25611
88069031,25609
88075276,25613
88081498,25610
88087723,25611
88093934,25614
88100154,25607
88106407,25609
88118045,25612
88124318,25609
88130589,25607
88136783,25608
88143040,25611
88149291,25602
88155498,25606
88161707,25607
88168607,25609
88174866,25609
88181141,25609
88186376,25606
88191868,25604
88198088,25608
88204323,25607
88210556,25606
88216793,25611
88222978,25604
88229167,25606
88235394,25609
88241599,25607
88253063,25608
88259295,25604
88265488,25613
88271708,25606
88277906,25603
88284081,25607
88290323,25602
88295793,25598
88302005,25605
88308207,25603
88314442,25600
88319695,25607
88325209,25599
88331468,25604
88337687,25601
88343925,25601
88350143,25604
88356331,25601
88362604,25600
88368828,25602
88374996,25602
88387102,25597
88393355,25600
88399594,25600
88405808,25597
88412003,25597
88418209,25597
88424444,25602
88429924,25599
88436161,25593
88442372,25595
88448612,25595
88454845,25597
88460059,25598
88466301,25600
88472545,25591
88478804,25595
88485036,25594
88491253,25594
88497487,25599
88503683,25591
88509896,25594
88521585,25594
88527786,25600
88534000,25598
88540250,25596
88546490,25595
88552687,25598
88558943,25598
88564193,25597
88570406,25594
88576636,25599
88582873,25597
88589074,25602
88595234,25595
88601474,25598
88607744,25602
88613992,25599
88620230,25600
88626453,25596
88632688,25601
88638925,25594
88645122,25599
88656571,25599
88662729,25600
88668917,25597
88675091,25601
88681320,25597
88687510,25599
88693701,25604
88699157,25602
88705333,25599
88711523,25600
88717778,25600
88723948,25598
88728425,25596
88734634,25599
88740819,25597
88747019,25596
88753229,25602
88759416,25600
88765631,25599
88771862,25604
88778062,25599
88789789,25599
88795970,25601
88802195,25603
88809040,25600
88815238,25600
88821387,25597
88827592,25603
88832811,25601
88838963,25602
88845188,25604
88851413,25600
88857586,25601
88863044,25602
88869234,25604
88875405,25602
88881597,25602
88887810,25606
88894006,25602
88900164,25602
88906342,25601
88912526,25608
88923934,25600
88930081,25602
88936307,25586
88942518,25596
88948681,25593
88954875,25591
88961030,25593
88967269,25593
88973486,25596
88979637,25595
88985839,25590
88992009,25588
88997441,25592
89002636,25589
89008820,25590
89015610,25593
89021873,25594
89028045,25590
89034242,25587
89040406,25591
89046598,25596
89052812,25588
89058976,25589
89065181,25586
89071404,25578
89077548,25587
89083715,25583
89089902,25579
89096059,25581
89102263,25581
89107692,25574
89113897,25577
89120103,25586
89126306,25581
89132526,25576
89137760,25576
89143937,25581
89150167,25580
89156374,25580
89162581,25576
89168760,25577
89174960,25578
89181173,25580
89187401,25576
89205665,25572
89211914,25573
89218207,25568
89224416,25580
89231263,25570
89236776,25579
89243007,25578
89249191,25573
89255407,25576
89261645,25577
89266136,25576
89272369,25574
89278578,25578
89284781,25580
89290974,25574
89297160,25575
89303374,25575
89309555,25573
89315699,25575
89321898,25570
89328066,25573
89334292,25569
89340546,25572
89346727,25573
89352981,25574
89359174,25577
89365373,25572
89371562,25572
89377747,25572
89383912,25569
89390089,25576
89396345,25570
89401145,25575
89407366,25565
89413601,25573
89419820,25571
89426027,25571
89432220,25574
89438407,25574
89445207,25571
89451376,25569
89457582,25574
89468977,25575
89475192,25577
89481394,25578
89487613,25571
89493788,25575
89499984,25567
89506200,25577
89511679,25572
89517913,25571
89524105,25574
89530249,25573
89534656,25570
89540854,25567
89547035,25575
89553271,25579
89559482,25572
89565648,25581
89571822,25575
89577983,25574
89584202,25579
89590380,25577
89602047,25567
89608252,25569
89614426,25569
89620629,25570
89626827,25566
89633036,25571
89639219,25571
89645392,25567
89652183,25568
89658372,25571
89664540,25570
89669722,25573
89675915,25571
89682102,25570
89688332,25563
89694513,25562
89700650,25577
89706840,25571
89712991,25569
89719215,25569
89725438,25570
89737112,25552
89743290,25551
89749465,25549
89755659,25553
89761871,25567
89768103,25558
89774278,25552
89780476,25549
89785659,25559
89791884,25560
89798057,25559
89803515,25562
89809706,25554
89815931,25553
89822150,25550
89828327,25552
89834516,25557
89840675,25550
89846887,25556
89853092,25555
89859266,25558
89871331,25547
89877542,25548
89883747,25544
89889963,25543
89896162,25548
89902358,25552
89908567,25549
89914813,25551
89920270,25550
89926462,25549
89932627,25543
89937868,25546
89944055,25544
89949491,25550
89955673,25544
89961890,25550
89968076,25544
89974281,25540
89980498,25546
89986719,25545
89992946,25548
89999177,25548
90005399,25543
90011640,25545
90017858,25545
90024049,25540
90030223,25549
90036390,25546
90042579,25538
90048824,25544
90054022,25545
90060211,25542
90066443,25544
90073282,25540
90079513,25546
90084965,25544
90091167,25545
90097325,25541
90103491,25549
90109655,25545
90115891,25543
90122062,25546
90128261,25542
90134517,25548
90145872,25540
90152060,25542
90158289,25544
90164475,25544
90170677,25545
90176874,25546
90183027,25547
90188450,25542
90194633,25545
90200885,25544
90207131,25544
90212349,25543
90218546,25542
90224729,25548
90230925,25542
90237122,25544
90243327,25547
90249505,25548
90255723,25546
90261965,25545
90268220,25549
90280017,25549
90286911,25545
90293121,25545
90299337,25543
90305507,25548
90311713,25549
90317966,25548
90323452,25544
90329650,25540
90335899,25538
90342117,25546
90347349,25547
90353545,25541
90358969,25545
90365134,25551
90371356,25546
90377614,25542
90383816,25546
90390052,25549
90396277,25545
90402507,25544
90413997,25541
90420214,25543
90426451,25539
90432684,25542
90438936,25541
90452012,25544
90457237,25546
90463523,25536
90469780,25536
90475980,25543
90482227,25538
90487724,25544
90493944,25542
90500169,25533
90507012,25538
90513265,25540
90519487,25535
90525677,25533
90531936,25539
90543396,25530
90549638,25533
90555878,25529
90562036,25531
90568248,25533
90574458,25531
90580710,25528
90586975,25528
90593190,25529
90599424,25527
90605638,25533
90611127,25528
90617356,25531
90622632,25536
90628823,25534
90635060,25530
90641291,25537
90647451,25530
90653660,25537
90659845,25533
90666030,25536
90672235,25534
90678431,25530
90684651,25531
90690868,25526
90697056,25527
90703304,25530
90709467,25528
90716316,25529
90722528,25532
90727944,25529
90734157,25528
90740348,25530
90745564,25526
90751786,25532
90757230,25526
90763406,25524
90769581,25530
90775775,25521
90782010,25524
90788225,25527
90794426,25527
90800625,25531
90806843,25523
90818288,25524
90824486,25528
90830690,25517
90836899,25523
90843098,25524
90849320,25525
90855516,25524
90861699,25526
90867929,25522
90874107,25527
90879571,25526
90885785,25523
90891016,25517
90897224,25525
90903408,25521
90909569,25527
90915793,25525
90921996,25521
90928870,25523
90935076,25527
90941324,25528
90953146,25533
90959313,25533
90965529,25528
90971702,25531
90977943,25531
90984090,25529
90990332,25528
90995784,25526
91002021,25532
91008236,25530
91013417,25524
91019650,25528
91025839,25525
91032074,25528
91038313,25520
91044523,25534
91050720,25531
91056902,25525
91063091,25527
91069339,25529
91075557,25535
91087171,25540
91093345,25531
91099593,25539
91105802,25533
91111980,25534
91118197,25534
91124347,25533
91130538,25534
91137399,25541
91143618,25538
91148818,25532
91155052,25534
91161267,25534
91166717,25539
91172920,25533
91179148,25535
91185304,25533
91191498,25538
91197686,25531
91203917,25529
91210131,25531
91221543,25538
91227758,25529
91233931,25532
91240103,25535
91246321,25536
91252515,25530
91258698,25529
91264906,25528
91270368,25531
91276575,25533
91282802,25527
91289019,25534
91295206,25531
91300390,25527
91306592,25527
91312780,25526
91318952,25529
91325092,25529
91331338,25531
91337546,25525
91343703,25532
91355918,25518
91362152,25519
91368368,25522
91374595,25526
91380769,25525
91386959,25520
91393140,25527
91399292,25522
91404513,25533
91410705,25528
91416937,25524
91423151,25524
91429340,25527
91434798,25527
91440979,25517
91447178,25533
91453330,25526
91459527,25526
91465769,25526
91471981,25523
91478143,25526
91484306,25526
91490490,25527
91496676,25523
91502897,25524
91509085,25515
91515285,25522
91521464,25526
91527644,25524
91533888,25523
91539123,25522
91545366,25519
91551601,25523
91557713,25525
91563966,25531
91569405,25526
91575592,25520
91581786,25524
91587996,25523
91594165,25521
91600380,25525
91606603,25519
91612828,25525
91619011,25524
91630457,25524
91636653,25528
91642858,25525
91649039,25530
91655262,25527
91661430,25533
91667658,25530
91673840,25525
91680015,25528
91686248,25534
91691664,25525
91704482,25530
91710729,25523
91716978,25525
91723186,25531
91729334,25530
91735531,25525
91741690,25521
91747892,25529
91754105,25523
91760274,25528
91766478,25533
91772660,25531
91779508,25530
91785779,25533
91791973,25536
91798169,25532
91804385,25536
91809626,25536
91815872,25531
91821326,25536
91827512,25528
91833707,25534
91838961,25538
91845143,25533
91851319,25531
91857529,25536
91863690,25530
91869903,25532
91876143,25532
91882343,25533
91888577,25529
91900275,25530
91906449,25530
91912619,25535
91918785,25527
91924975,25528
91931156,25527
91937370,25534
91942594,25532
91948835,25532
91954297,25530
91960496,25530
91966758,25534
91972016,25534
91978216,25534
91984402,25522
91991241,25534
91997435,25532
92003636,25530
92009865,25530
92016055,25532
92022280,25531
92033946,25533
92040158,25529
92046345,25532
92052535,25535
92058692,25530
92064925,25533
92071135,25534
92077327,25522
92083551,25534
92088769,25537
92094963,25534
92101154,25533
92107386,25537
92113575,25535
92119759,25530
92125932,25524
92132078,25533
92138270,25529
92144465,25536
92150662,25536
92156907,25534
92168608,25530
92174881,25532
92181103,25530
92187325,25535
92193566,25527
92200479,25529
92206727,25532
92212971,25530
92218199,25528
92223646,25532
92229924,25530
92236178,25534
92242422,25530
92247655,25532
92253843,25526
92260038,25530
92266260,25527
92272483,25530
92278714,25527
92284987,25525
92291241,25527
92302970,25519
92309224,25521
92315416,25522
92321630,25530
92327817,25522
92333987,25525
92340220,25518
92346423,25518
92351652,25522
92357926,25520
92364145,25522
92370402,25520
92376652,25516
92382147,25524
92388402,25522
92394644,25520
92400907,25526
92407160,25529
92414050,25529
92420305,25522
92426558,25526
92438029,25526
92444240,25528
92450477,25528
92456715,25530
92462955,25526
92469220,25530
92475484,25524
92481740,25531
92487265,25526
92492507,25527
92498769,25533
92505007,25521
92511250,25526
92516756,25527
92522980,25532
92529179,25521
92535437,25523
92541666,25526
92547878,25518
92554094,25519
92560315,25533
92571723,25530
92577955,25529
92584162,25529
92590377,25525
92596576,25532
92602834,25534
92609053,25534
92615262,25535
92620786,25532
92626966,25529
92633184,25532
92639396,25526
92645637,25531
92650885,25531
92657118,25532
92663336,25521
92669549,25521
92675803,25529
92682003,25531
92688252,25525
92694470,25527
92700710,25529
92706947,25529
92713191,25531
92719398,25527
92725627,25525
92731898,25532
92738114,25531
92744362,25532
92750572,25525
92756078,25528
92761643,25523
92767883,25527
92774120,25529
92780389,25523
92785667,25523
92791896,25524
92798134,25525
92804342,25526
92810554,25522
92816806,25525
92823060,25524
92829292,25529
92841581,25526
92847814,25527
92854008,25526
92860197,25532
92866440,25534
92872644,25531
92878874,25533
92885073,25526
92890270,25531
92895773,25527
92902029,25526
92908261,25530
92914513,25527
92919719,25529
92925947,25527
92932167,25529
92938406,25528
92951202,25530
92957417,25524
92963703,25524
92975361,25537
92981591,25532
92987801,25536
92994041,25524
93000288,25538
93006528,25535
93012802,25530
93019048,25533
93024312,25535
93030567,25532
93036822,25531
93043083,25536
93048575,25530
93054832,25536
93061690,25535
93067927,25531
93074122,25534
93080315,25530
93086583,25531
93092778,25533
93099022,25535
93105242,25536
93111512,25535
93117731,25538
93123943,25539
93130124,25532
93136315,25535
93142540,25534
93148730,25536
93155017,25540
93159533,25532
93165738,25532
93171959,25528
93178195,25532
93183464,25537
93189660,25530
93195812,25530
93201996,25529
93208169,25536
93214381,25531
93220588,25531
93226835,25534
93233033,25525
93244728,25525
93250980,25531
93257177,25525
93263340,25531
93270117,25528
93276316,25527
93282523,25529
93288694,25526
93293131,25538
93299370,25527
93305590,25528
93311823,25530
93317985,25524
93324185,25528
93330326,25525
93336482,25524
93342671,25524
93348861,25524
93355046,25522
93361267,25524
93367486,25521
93378865,25518
93385036,25524
93391237,25523
93397422,25524
93403655,25519
93409850,25524
93416049,25518
93422247,25525
93427662,25530
93433906,25527
93440134,25524
93446319,25523
93452488,25525
93458688,25529
93464905,25523
93471134,25526
93477313,25528
93484156,25521
93490332,25522
93496543,25515
93502708,25524
93514137,25523
93520347,25526
93526548,25528
93532736,25520
93538956,25522
93545122,25521
93551337,25522
93557522,25524
93562992,25519
93568537,25525
93574783,25522
93580967,25526
93587189,25526
93592377,25523
93598591,25517
93604756,25522
93610931,25520
93617101,25523
93623339,25518
93629556,25524
93635738,25521
93641949,25513
93648156,25515
93654341,25511
93660551,25511
93666752,25518
93672960,25512
93679142,25516
93685392,25511
93692290,25514
93697748,25514
93703277,25513
93709492,25514
93715687,25511
93721916,25513
93727113,25516
93733342,25521
93739531,25519
93745699,25518
93751905,25520
93758110,25510
93764332,25515
93770540,25511
93776693,25515
93788398,25517
93794591,25529
93800778,25520
93806997,25519
93813192,25518
93819373,25518
93825580,25522
93830797,25518
93836976,25526
93843160,25521
93849369,25522
93855565,25527
93861021,25517
93867247,25523
93873446,25517
93879612,25523
93885835,25526
93892020,25526
93898231,25525
93904963,25523
93911198,25524
93922619,25523
93928822,25530
93935002,25532
93941243,25525
93947433,25533
93953661,25527
93959889,25527
93965366,25522
93971602,25528
93977849,25530
93984081,25529
93990296,25523
93995522,25525
94001720,25525
94007930,25523
94014126,25519
94020329,25529
94026568,25524
94032844,25520
94039111,25519
94045358,25525
94057171,25517
94063431,25523
94069644,25519
94075857,25517
94082089,25524
94088319,25523
94094539,25522
94100042,25525
94106250,25527
94111996,25523
94118219,25519
94124427,25516
94129914,25513
94136105,25519
94142306,25518
94148512,25522
94154702,25525
94160926,25513
94167163,25514
94173377,25518
94179604,25525
94185794,25516
94191992,25515
94204868,25517
94211120,25520
94217369,25522
94223533,25519
94229745,25524
94235992,25514
94241227,25521
94247497,25514
94253721,25515
94259909,25517
94266127,25516
94272383,25518
94278579,25514
94284732,25517
94290898,25519
94297077,25523
94303287,25522
94309469,25516
94315659,25522
94327309,25528
94334182,25534
94340327,25532
94346541,25533
94352735,25535
94358945,25534
94364154,25535
94370385,25536
94375891,25534
94382096,25539
94388259,25537
94394482,25538
94399669,25539
94405849,25540
94412023,25536
94418202,25534
94424357,25538
94430560,25536
94436846,25541
94443032,25532
94449232,25538
94460873,25542
94467102,25545
94473261,25536
94479412,25544
94485643,25545
94491837,25544
94498041,25544
94504285,25550
94509499,25543
94515709,25544
94521884,25545
94528040,25546
94533453,25543
94539691,25546
94546529,25553
94552743,25550
94558928,25546
94565143,25550
94571330,25550
94577532,25550
94583719,25550
94595134,25561
94601360,25557
94607567,25563
94613758,25562
94619977,25562
94626227,25561
94632447,25559
94637883,25567
94644121,25564
94650323,25558
94656508,25564
94662709,25565
94667959,25564
94674133,25565
94680386,25565
94686563,25559
94692782,25566
94698973,25564
94705193,25560
94711423,25555
94717640,25559
94723865,25555
94730039,25570
94736198,25565
94742431,25565
94748627,25568
94755500,25568
94761706,25568
94767918,25569
94773363,25564
94779548,25565
94784749,25569
94790941,25572
94797101,25567
94802544,25567
94808704,25568
94814911,25563
94821104,25569
94827325,25567
94833513,25570
94839701,25568
94845928,25568
94852151,25567
94858323,25566
94869716,25583
94875890,25574
94882039,25571
94888244,25577
94894421,25580
94900653,25577
94906120,25578
94912323,25573
94918543,25566
94924796,25578
94931013,25579
94937193,25577
94943329,25573
94949509,25573
94955631,25572
94961814,25570
94968645,25572
94974898,25575
94981085,25575
94987298,25579
94993476,25572
95004936,25569
95011108,25571
95017342,25567
95023526,25571
95029716,25572
95035899,25565
95041324,25570
95047516,25564
95053761,25567
95058960,25569
95065214,25566
95071451,25574
95076934,25570
95083159,25566
95089425,25561
95095657,25568
95101899,25566
95108129,25572
95114348,25570
95120581,25564
95126831,25570
95138296,25569
95144523,25573
95150735,25570
95156971,25570
95163204,25570
95169417,25575
95176222,25576
95182468,25564
95188676,25571
95194170,25568
95200409,25569
95206612,25573
95211816,25568
95218093,25570
95224298,25565
95230500,25572
95236777,25562
95243030,25565
95249255,25571
95255484,25573
95261716,25565
95273439,25570
95279693,25576
95285915,25571
95292174,25560
95298396,25565
95304641,25562
95310876,25570
95316108,25568
95322326,25567
95327794,25569
95334012,25570
95340240,25568
95345434,25570
95351614,25565
95357774,25566
95363965,25565
95370118,25566
95376359,25569
95382515,25569
95389220,25561
95395488,25570
95401699,25568
95407935,25569
95414129,25571
95420333,25559
95426520,25568
95432753,25573
95438982,25575
95451785,25573
95457252,25569
95463495,25566
95469715,25573
95474948,25571
95481127,25572
95487362,25570
95493538,25569
95499717,25566
95505964,25574
95512149,25571
95518401,25568
95524613,25573
95530798,25576
95537016,25583
95543246,25577
95549438,25575
95555611,25577
95561775,25577
95567983,25576
95574185,25578
95580376,25576
95586601,25579
95592118,25581
95598296,25580
95604485,25578
95610362,25577
95616573,25577
95622765,25571
95628923,25575
95635077,25570
95641300,25574
95647477,25568
95653683,25573
95659879,25580
95666023,25574
95677680,25576
95683896,25590
95690079,25581
95696253,25582
95702423,25586
95708640,25580
95714862,25581
95721103,25580
95726617,25587
95732837,25579
95739018,25580
95744248,25578
95750452,25581
95756656,25581
95762855,25584
95769046,25581
95775258,25579
95781444,25580
95787690,25579
95793890,25580
95800083,25581
95811764,25573
95818591,25571
95824861,25569
95831036,25566
95837245,25569
95843455,25565
95849728,25573
95855956,25566
95860403,25565
95866651,25565
95872798,25563
95879044,25569
95885263,25561
95891468,25559
95897707,25562
95903944,25562
95910121,25561
95916252,25559
95922530,25566
95928767,25559
95934999,25552
95946477,25552
95952704,25548
95958935,25542
95965160,25545
95971364,25546
95977622,25549
95983877,25543
95990137,25554
95994967,25554
96001164,25553
96007332,25548
96013569,25550
96018811,25547
96025017,25553
96031839,25546
96037997,25553
96044166,25552
96050393,25552
96056593,25551
96062799,25556
96069003,25554
96080602,25548
96086796,25555
96093008,25553
96099193,25553
96105346,25547
96111569,25550
96117827,25553
96123984,25552
96129186,25552
96135415,25547
96141630,25548
96147827,25547
96153251,25550
96159401,25554
96165587,25543
96171813,25552
96177980,25547
96184165,25544
96190358,25551
96196531,25539
96202697,25549
96208941,25543
96215100,25550
96221310,25547
96227469,25537
96233698,25547
96240579,25546
96246802,25543
96253066,25548
96259292,25548
96263754,25543
96269960,25547
96276157,25549
96282298,25550
96287462,25553
96293665,25546
96299860,25556
96306030,25550
96312260,25547
96318441,25548
96324630,25547
96330866,25550
96337065,25550
96343320,25549
96354926,25544
96361098,25545
96367253,25541
96373428,25543
96379634,25542
96385863,25543
96392082,25547
96398302,25540
96404473,25543
96410687,25551
96416872,25546
96422045,25550
96428255,25540
96434443,25550
96440648,25546
96446864,25546
96453638,25543
96459852,25550
96466061,25547
96472273,25544
96478500,25543
96490131,25544
96496357,25543
96502589,25544
96508854,25545
96515073,25545
96521264,25541
96527439,25547
96532669,25546
96538142,25545
96544337,25543
96550513,25538
96556637,25544
96562872,25541
96569086,25540
96575281,25543
96581490,25538
96587700,25542
96593929,25545
96600125,25541
96606290,25539
96612481,25534
96623933,25533
96630096,25532
96636295,25530
96642453,25536
96648637,25535
96654879,25530
96661659,25531
96667151,25532
96672687,25532
96678887,25527
96685111,25529
96697918,25536
96704117,25530
96710403,25533
96716612,25532
96722851,25530
96729067,25531
96735282,25530
96741486,25528
96753162,25528
96759367,25525
96765541,25520
96771738,25526
96777964,25528
96784187,25525
96790349,25527
96796536,25524
96802738,25522
96808948,25525
96815165,25529
96821361,25521
96827520,25523
96832711,25522
96838888,25517
96845061,25521
96851267,25519
96857476,25517
96863682,25518
96869881,25519
96876069,25523
96888412,25513
96894640,25516
96900813,25513
96906983,25515
96913179,25514
96919360,25511
96925570,25515
96931759,25513
96936217,25519
96942372,25512
96948578,25517
96954742,25511
96960938,25511
96966152,25518
96972383,25510
96978566,25514
96984784,25511
96990973,25517
96997136,25507
97003379,25508
97009553,25505
97015739,25513
97021951,25513
97028107,25509
97034346,25508
97040485,25508
97046689,25507
97052872,25506
97059072,25508
97065273,25508
97070719,25511
97076953,25512
97083167,25510
97090019,25501
97096225,25508
97101452,25509
97107640,25508
97113811,25506
97120034,25508
97126301,25510
97132509,25512
97138715,25505
97144926,25503
97151106,25511
97162710,25507
97168940,25506
97175118,25511
97181272,25510
97187491,25512
97193696,25508
97199931,25510
97205131,25509
97210584,25510
97216826,25509
97223058,25512
97229273,25509
97234510,25510
97240671,25513
97246926,25510
97253179,25512
97259441,25505
97265724,25507
97271987,25509
97278197,25504
97284438,25508
97296180,25508
97303067,25511
97309317,25500
97315570,25503
97321825,25500
97328034,25506
97334289,25503
97339789,25506
97345331,25502
97351610,25497
97357790,25501
97364006,25499
97369222,25499
97375433,25503
97381683,25500
97387938,25496
97394179,25498
97400441,25498
97406644,25499
97412848,25504
97419072,25502
97430745,25489
97436926,25487
97443104,25488
97449364,25497
97455608,25490
97461845,25489
97468075,25489
97473283,25488
97478792,25490
97485057,25485
97491296,25485
97497543,25485
97503759,25484
97509990,25483
97516862,25484
97523103,25486
97529346,25490
97535537,25486
97541743,25487
97548001,25492
97554227,25486
97565675,25473
97571912,25475
97578085,25475
97584313,25472
97590521,25471
97596790,25473
97603002,25478
97608545,25471
97614092,25470
97620326,25469
97626577,25476
97632768,25474
97638970,25468
97644219,25472
97650420,25474
97656625,25468
97662814,25468
97668983,25467
97675262,25471
97681518,25467
97687722,25477
97694000,25473
97700228,25467
97706487,25468
97712668,25474
97718907,25469
97725805,25470
97732040,25473
97738287,25466
97743774,25460
97750030,25471
97756243,25466
97762420,25467
97768641,25462
97774851,25464
97781090,25466
97787308,25460
97793597,25459
97799840,25456
97806070,25462
97812318,25462
97818537,25467
97824778,25464
97831028,25459
97837231,25464
97843497,25464
97849736,25461
97856011,25466
97862276,25469
97868493,25460
97873756,25463
97880013,25464
97885551,25465
97891751,25466
97897982,25462
97904224,25462
97910415,25463
97915642,25459
97921923,25463
97928158,25467
97934937,25466
97941189,25456
97954291,25460
97960578,25464
97972019,25461
97978204,25468
97984409,25464
97990628,25462
97996822,25467
98003097,25464
98009327,25460
98014792,25465
98020998,25466
98027194,25470
98033397,25466
98039596,25463
98044840,25461
98051018,25469
98057211,25460
98063451,25463
98069678,25469
98075864,25462
98082081,25465
98088266,25465
98094451,25471
98106144,25447
98112300,25454
98118478,25448
98124692,25453
98130912,25454
98137156,25456
98142362,25458
98147875,25451
98154683,25460
98160947,25456
98167165,25450
98173336,25449
98178515,25453
98184697,25452
98190931,25455
98197175,25457
98203415,25455
98209649,25453
98215885,25452
98222126,25451
98228357,25450
98234574,25451
98240837,25442
98247069,25432
98253289,25441
98259529,25443
98265755,25437
98271992,25442
98277475,25442
98283044,25441
98289261,25441
98295445,25441
98301648,25439
98307865,25435
98313110,25437
98319341,25442
98325517,25445
98331711,25435
98337970,25444
98344087,25435
98350326,25444
98356572,25439
98363372,25439
98369641,25435
98381263,25428
98387537,25427
98393812,25424
98400074,25432
98406301,25427
98411569,25433
98417083,25431
98423231,25428
98429471,25431
98435707,25436
98441917,25429
98447160,25439
98453421,25432
98459617,25435
98465873,25429
98472109,25433
98478359,25429
98484573,25432
98490782,25430
98497027,25425
98503288,25426
98514968,25431
98521171,25435
98527373,25430
98533639,25433
98539903,25431
98546030,25429
98550599,25429
98556823,25425
98563065,25433
98569317,25436
98575554,25434
98582409,25437
98588632,25434
98594868,25431
98601096,25430
98607332,25433
98613617,25432
98619847,25433
98626090,25439
98632332,25435
98638543,25439
98649968,25436
98656177,25432
98662433,25435
98668638,25435
98674857,25436
98680348,25437
98686536,25434
98692741,25435
98698970,25436
98705199,25428
98711436,25433
98717660,25436
98722866,25438
98729139,25438
98735383,25433
98741647,25440
98747893,25432
98754138,25433
98760359,25435
98766572,25439
98772807,25442
98784575,25440
98791439,25439
98797679,25435
98803940,25439
98810186,25441
98815391,25441
98820865,25440
98827097,25440
98833353,25444
98839596,25441
98845854,25435
98852087,25440
98857319,25443
98863536,25444
98869810,25435
98876059,25440
98882319,25440
98888518,25441
98894754,25441
98900944,25437
98907175,25440
98918818,25435
98925034,25438
98931252,25430
98937517,25438
98943765,25439
98949018,25440
98955272,25440
98961495,25433
98967727,25434
98973942,25433
98980157,25444
98986384,25437
98991847,25440
98998043,25432
99004916,25433
99011117,25434
99017369,25432
99023609,25431
99029905,25434
99036118,25431
99042318,25433
99053774,25430
99059931,25430
99066192,25429
99072426,25430
99078638,25430
99084129,25430
99089698,25423
99095932,25423
99102161,25429
99108387,25427
99114630,25424
99120843,25426
99126071,25429
99132312,25426
99138503,25423
99144743,25424
99150979,25430
99157180,25424
99163444,25424
99169662,25424
99175927,25422
99187626,25418
99193888,25427
99206729,25423
99213044,25424
99219296,25422
99226184,25430
99232386,25424
99238587,25424
99244798,25424
99251023,25426
99256242,25423
99262448,25426
99268655,25424
99274889,25422
99281148,25418
99287384,25424
99293649,25421
99299900,25425
99306090,25426
99317843,25430
99324064,25428
99330280,25425
99336472,25428
99342640,25426
99348847,25427
99354065,25429
99359549,25432
99365751,25432
99371957,25421
99378194,25427
99384401,25426
99389643,25427
99395825,25427
99402082,25432
99408329,25431
99414527,25430
99420759,25421
99426978,25427
99433833,25429
99440071,25427
99451728,25435
99457964,25432
99464181,25432
99470412,25433
99476666,25433
99482901,25433
99488150,25436
99493657,25433
99499868,25434
99506086,25434
99512304,25431
99518539,25438
99523754,25434
99529960,25433
99536178,25429
99542439,25429
99548655,25433
99554898,25432
99561152,25434
99567445,25431
99573649,25432
99579885,25434
99586092,25433
99592284,25438
99598495,25443
99604691,25427
99610876,25431
99617056,25434
99622581,25440
99628132,25438
99634331,25443
99640497,25440
99647356,25433
99653554,25432
99658756,25441
99664943,25437
99671105,25434
99677330,25431
99683541,25438
99689736,25435
99695942,25436
99702146,25439
99708382,25434
99714575,25439
99726190,25441
99732333,25441
99738527,25431
99744650,25438
99750878,25430
99756103,25440
99762300,25437
99768476,25436
99774683,25434
99780821,25437
99787032,25438
99793231,25436
99799412,25439
99805603,25437
99811767,25432
99817972,25435
99824182,25434
99830422,25438
99836630,25431
99842903,25440
99849115,25440
99861505,25430
99867717,25436
99873978,25427
99880214,25437
99886447,25432
99891913,25427
99898127,25423
99903362,25428
99909612,25433
99915867,25427
99922095,25425
99927585,25435
99933817,25427
99940036,25426
99946250,25434
99952498,25432
99958726,25438
99964949,25428
99971125,25431
99977414,25426
99983622,25432
99995144,25430
100001311,25433
100007558,25434
100013832,25437
100020084,25433
100025555,25427
100031728,25435
100036962,25437
100043170,25430
100049380,25424
100055607,25427
100061769,25429
100068469,25431
100074714,25433
100080945,25427
100087177,25431
100093394,25431
100099604,25430
100105800,25423
100112016,25430
100118218,25438
100129870,25436
100136078,25433
100142277,25436
100148462,25435
100154661,25436
100159865,25437
100166057,25434
100171493,25440
100177679,25431
100183902,25438
100190078,25436
100196250,25439
100201441,25440
100207675,25435
100213876,25429
100220057,25440
100226293,25434
100232512,25437
100238710,25436
100244891,25443
100251083,25438
100257268,25440
100263458,25437
100269644,25433
100275811,25442
100282561,25436
100288808,25439
100294235,25440
100300447,25444
100305688,25441
100311880,25439
100318058,25444
100324255,25442
100330466,25445
100335920,25442
100342084,25449
100348272,25442
100354501,25445
100360687,25442
100366931,25445
100373149,25439
100379340,25447
100385504,25442
100391696,25443
100403152,25447
100409352,25447
100415556,25443
100421773,25447
100427999,25452
100434194,25452
100440455,25444
100453529,25450
100459728,25455
100466030,25448
100472234,25450
100478402,25449
100484579,25445
100490759,25448
100497624,25450
100503857,25446
100510090,25446
100516319,25448
100522550,25453
100533940,25446
100540105,25448
100546298,25440
100552478,25442
100557941,25442
100564142,25439
100570403,25440
100575646,25440
100581830,25445
100588053,25442
100594199,25442
100600414,25444
100605858,25438
100612024,25445
100618219,25444
100624415,25436
100630637,25443
100636777,25445
100642994,25449
100649171,25446
100655358,25444
100661546,25443
100667678,25444
100673897,25440
100680066,25447
100686257,25444
100691485,25446
100697667,25444
100703871,25442
100710020,25444
100716250,25441
100722465,25447
100728670,25441
100734888,25446
100740295,25446
100746495,25449
100752669,25446
100758884,25447
100765094,25445
100771316,25443
100777488,25442
100783725,25442
100789952,25444
100796175,25450
100807542,25443
100813733,25444
100819970,25449
100826205,25447
100832439,25447
100838672,25450
100844131,25452
100850370,25446
100856541,25445
100862740,25444
100868972,25443
100874174,25447
100880398,25445
100886620,25447
100892815,25452
100899032,25448
100905192,25447
100911384,25448
100918171,25452
100924389,25447
100930531,25451
100942104,25456
100948281,25453
100954466,25456
100960660,25454
100965872,25456
100972068,25459
100978293,25451
100984488,25456
100990677,25456
100996835,25453
101003000,25457
101009173,25456
101015385,25455
101021543,25457
101027714,25455
101033925,25455
101040093,25458
101046293,25463
101052515,25459
101058694,25457
101064883,25459
101076506,25462
101082686,25466
101088907,25459
101095107,25463
101100298,25465
101106516,25472
101112687,25463
101118100,25466
101124275,25466
101131070,25471
101137273,25467
101143432,25464
101148627,25468
101154795,25467
101161026,25464
101167227,25466
101173450,25464
101179661,25463
101185863,25463
101192045,25459
101198213,25463
101204427,25464
101210631,25461
101216830,25467
101223100,25464
101229320,25465
101234783,25467
101241011,25462
101247192,25463
101252771,25467
101259002,25460
101265207,25463
101271405,25462
101277586,25459
101282812,25460
101289031,25461
101295223,25461
101301423,25460
101307585,25461
101313769,25462
101319976,25462
101326217,25461
101332391,25463
101339196,25455
101350901,25464
101357116,25466
101363312,25464
101368521,25459
101374728,25465
101380931,25464
101387126,25465
101393335,25465
101399530,25464
101405724,25467
101411904,25465
101417349,25463
101423530,25461
101429732,25465
101435946,25461
101442195,25459
101448374,25463
101454608,25465
101460837,25465
101467070,25457
101473281,25463
101484713,25463
101490981,25465
101497227,25461
101503460,25460
101509682,25461
101515970,25464
101522174,25464
101527646,25462
101533876,25465
101540098,25460
101546271,25469
101553116,25469
101559362,25462
101565617,25465
101571857,25467
101578090,25463
101584331,25466
101590575,25469
101596822,25469
101603076,25468
101609324,25465
101620803,25463
101627012,25471
101633279,25465
101638755,25475
101644973,25475
101651244,25479
101657472,25476
101662715,25468
101668910,25471
101675144,25471
101681385,25473
101687596,25475
101693094,25468
101705938,25467
101712229,25472
101718516,25477
101724793,25471
101731020,25472
101737243,25471
101748696,25476
101754908,25482
101761126,25481
101766624,25483
101773576,25481
101779805,25480
101786052,25480
101791275,25479
101797516,25485
101803741,25479
101809966,25488
101816196,25485
101821679,25485
101827900,25478
101834108,25475
101840283,25482
101846478,25479
101852660,25481
101858879,25481
101865060,25481
101871247,25478
101877413,25482
101883604,25473
101889793,25476
101895986,25481
101901178,25474
101907421,25474
101913646,25478
101919831,25479
101925248,25485
101931436,25479
101937607,25474
101943798,25474
101949982,25476
101956150,25479
101962347,25476
101968578,25476
101974765,25482
101980972,25468
101987864,25477
101994067,25475
102000244,25478
102006439,25474
102012635,25475
102024044,25477
102030279,25478
102035736,25473
102041971,25470
102048200,25473
102054392,25483
102059568,25474
102065763,25466
102071962,25479
102078151,25481
102084355,25474
102090539,25472
102096726,25477
102102916,25472
102109153,25482
102115371,25472
102121561,25474
102127776,25475
102133990,25479
102140176,25475
102146384,25473
102157990,25478
102164222,25477
102170411,25475
102176584,25475
102182770,25473
102188997,25481
102194829,25478
102201068,25473
102207298,25475
102213483,25474
102219676,25473
102225827,25475
102231296,25473
102237434,25473
102243653,25477
102249854,25476
102256119,25470
102262305,25477
102268570,25477
102274801,25478
102281000,25479
102292397,25485
102298628,25479
102304847,25478
102310215,25479
102316425,25481
102322596,25481
102328792,25484
102335003,25480
102341218,25480
102347391,25478
102353606,25479
102359787,25480
102365011,25483
102371198,25480
102377423,25476
102383629,25480
102389804,25477
102396031,25482
102402203,25477
102409078,25480
102415287,25480
102426991,25482
102433224,25484
102439426,25475
102444659,25488
102450863,25491
102457056,25485
102463251,25490
102468732,25489
102474952,25485
102481084,25488
102487379,25495
102493579,25494
102498784,25485
102505029,25492
102511225,25485
102517440,25496
102523618,25491
102529842,25495
102536014,25487
102542206,25492
102548419,25490
102554675,25488
102560917,25490
102567142,25486
102573372,25488
102578879,25487
102585117,25492
102591348,25485
102597617,25490
102602832,25485
102609072,25486
102615284,25486
102622170,25488
102628423,25486
102633890,25491
102640069,25484
102646261,25492
102652486,25491
102658688,25493
102664944,25491
102671186,25488
102677392,25490
102683631,25501
102689848,25489
102701328,25495
102707540,25491
102713041,25492
102719228,25495
102725469,25489
102731762,25485
102737985,25486
102744201,25489
102750407,25488
102756653,25483
102762872,25492
102768110,25499
102774357,25491
102780586,25492
102786819,25489
102793062,25493
102799301,25487
102805458,25489
102811661,25495
102817881,25492
102824084,25490
102836561,25492
102842764,25490
102848272,25492
102854533,25490
102860722,25495
102867003,25484
102872217,25492
102878436,25493
102884634,25491
102890841,25491
102897088,25494
102902566,25493
102908823,25487
102915037,25494
102921223,25499
102927440,25490
102933682,25491
102939897,25491
102952759,25493
102958989,25495
102965285,25492
102971526,25492
102976772,25493
102983016,25492
102989260,25496
102995512,25494
103001722,25490
103007982,25499
103014230,25496
103020452,25496
103026652,25497
103032179,25496
103038415,25495
103044678,25497
103051577,25493
103057842,25499
103064109,25489
103070335,25498
103076604,25492
103082847,25490
103089065,25497
103100524,25497
103106724,25497
103112194,25499
103118454,25500
103124683,25500
103130912,25501
103136094,25497
103142274,25499
103148478,25502
103154679,25499
103160835,25502
103167043,25505
103173235,25503
103179453,25501
103185673,25502
103191876,25499
103198089,25503
103204344,25502
103210510,25500
103216688,25497
103222888,25491
103234507,25500
103240654,25500
103245867,25490
103252119,25497
103258340,25496
103265197,25496
103270693,25495
103276916,25495
103283104,25493
103289280,25495
103295467,25500
103301646,25497
103306868,25496
103313058,25496
103319222,25489
103325446,25494
103331664,25490
103337880,25492
103344053,25491
103350259,25494
103356526,25491
103368129,25490
103374305,25496
103380508,25485
103386678,25494
103392873,25497
103399109,25488
103405302,25492
103411474,25485
103417704,25493
103423909,25493
103430101,25492
103436294,25486
103441510,25487
103447727,25485
103453969,25489
103460170,25488
103466416,25488
103473219,25491
103479499,25491
103485712,25491
103491847,25483
103503489,25498
103509701,25494
103514931,25489
103521149,25493
103527374,25488
103533563,25489
103539787,25489
103545240,25499
103551440,25493
103557618,25491
103563794,25488
103570020,25488
103575233,25494
103581426,25489
103587611,25490
103593776,25495
103599986,25489
103606221,25498
103612474,25492
103618698,25493
103624872,25496
103631052,25492
103637229,25486
103643441,25491
103648914,25489
103655128,25493
103661330,25493
103667528,25489
103673749,25490
103679924,25495
103686717,25487
103692896,25495
103699091,25483
103705273,25490
103710484,25491
103716702,25491
103722926,25493
103729115,25484
103735302,25494
103741509,25493
103747726,25493
103753899,25494
103760062,25487
103766239,25493
103777904,25499
103783104,25508
103789343,25497
103795512,25503
103801716,25495
103807940,25500
103814089,25508
103819507,25503
103825724,25498
103831887,25499
103838070,25500
103844290,25500
103850495,25503
103856700,25501
103862920,25495
103869121,25499
103875376,25496
103881574,25500
103887751,25501
103893951,25495
103900813,25496
103912257,25495
103917747,25505
103923989,25499
103930186,25496
103936334,25501
103942519,25493
103948708,25493
103953942,25494
103960095,25495
103966298,25493
103972529,25495
103978716,25493
103984137,25494
103990315,25498
103996518,25492
104002657,25495
104008893,25496
104015069,25501
104021276,25497
104027447,25489
104033669,25489
104039884,25493
104046084,25491
104052273,25493
104058467,25495
104064673,25486
104070899,25498
104077101,25487
104083319,25492
104088554,25499
104094746,25498
104100926,25491
104107750,25491
104113997,25496
104119427,25493
104125616,25493
104131792,25493
104138015,25493
104144250,25492
104150489,25493
104156718,25488
104162943,25495
104169077,25488
104175287,25491
104186735,25487
104192173,25488
104205054,25491
104211311,25492
104217526,25482
104223727,25489
104229899,25492
104236133,25494
104242347,25492
104247520,25485
104253704,25489
104259931,25485
104266116,25489
104272346,25489
104278555,25493
104284740,25488
104290950,25494
104297104,25489
104303334,25495
104309501,25490
104315695,25497
104321153,25493
104328007,25490
104334214,25495
104340385,25496
104346585,25493
104352775,25492
104357981,25493
104364165,25496
104370358,25491
104376504,25493
104382714,25496
104388884,25494
104395075,25499
104401302,25491
104407519,25501
104413738,25502
104419957,25497
104426139,25492
104432318,25495
104438479,25502
104450250,25497
104455766,25498
104462012,25494
104468220,25495
104474431,25494
104480639,25496
104486846,25498
104492021,25491
104498169,25495
104504416,25494
104510574,25495
104516746,25496
104522179,25498
104528377,25499
104534643,25492
104541480,25485
104547727,25495
104553909,25498
104560075,25493
104566298,25491
104572484,25497
104583855,25491
104590061,25485
104596218,25487
104602418,25486
104608661,25487
104614915,25486
104621103,25488
104626564,25485
104632798,25486
104639002,25488
104645212,25489
104651448,25490
104656695,25486
104662964,25487
104669201,25485
104675417,25490
104681686,25490
104687926,25488
104694153,25488
104700373,25490
104706598,25496
104712855,25481
104719110,25482
104725368,25487
104730864,25481
104737096,25483
104743328,25483
104750158,25476
104756419,25481
104761667,25481
104767869,25483
104774134,25482
104780355,25476
104786566,25482
104792136,25482
104798327,25482
104804507,25479
104810728,25482
104816978,25482
104823241,25481
104829486,25482
104835690,25481
104841901,25480
104848129,25480
104859919,25475
104865136,25486
104871364,25480
104877570,25474
104883756,25480
104890032,25478
104895527,25477
104901753,25473
104908018,25474
104914208,25469
104920465,25476
104925737,25475
104931962,25478
104938207,25482
104944474,25477
104950702,25475
104956938,25479
104963804,25481
104970058,25482
104976304,25483
104982544,25475
104994220,25482
104999454,25481
105005667,25484
105011844,25481
105018106,25478
105024355,25476
105029833,25482
105036026,25478
105042218,25483
105048415,25477
105054633,25478
105059853,25480
105066113,25478
105072323,25480
105078563,25478
105084785,25482
105091018,25479
105097236,25482
105103447,25483
105109576,25482
105115698,25481
105121932,25481
105128149,25475
105133652,25476
105139902,25474
105146175,25476
105152461,25474
105158701,25480
105164914,25479
105171151,25474
105178021,25470
105184250,25478
105190427,25476
105195645,25478
105201904,25475
105208103,25477
105214264,25474
105220485,25477
105226683,25479
105232905,25471
105239138,25471
105245412,25475
105251649,25473
105263350,25475
105268577,25473
105274815,25472
105281069,25468
105287303,25471
105293499,25474
105298993,25465
105305212,25471
105311451,25472
105317683,25470
105323935,25472
105329180,25464
105335453,25469
105341668,25469
105347915,25472
105354146,25470
105360377,25469
105366575,25471
105372788,25471
105379031,25462
105385851,25465
105397613,25463
105402826,25461
105409094,25466
105415272,25461
105421513,25458
105427730,25457
105433960,25463
105440114,25455
105453208,25458
105458477,25455
105464740,25461
105470962,25462
105477198,25458
105483413,25459
105489622,25462
105495851,25459
105502136,25459
105508391,25463
105514596,25457
105526366,25464
105531628,25463
105537869,25459
105544115,25455
105550337,25451
105556567,25462
105562786,25459
105569028,25454
105575246,25454
105581474,25453
105587672,25451
105593164,25462
105599422,25455
105606250,25457
105612473,25454
105618717,25453
105625003,25453
105631210,25451
105637441,25454
105643693,25452
105649896,25457
105661335,25460
105666829,25458
105673069,25454
105679279,25460
105685510,25462
105691686,25461
105697936,25457
105703156,25454
105709357,25460
105715602,25453
105721800,25460
105728051,25461
105734281,25458
105740488,25456
105746733,25461
105752988,25466
105759202,25454
105765455,25464
105771670,25459
105777934,25463
105784182,25461
105795840,25463
105801067,25458
105807298,25463
105813457,25466
105820339,25461
105826585,25466
105832823,25462
105838316,25464
105844533,25466
105850749,25460
105856967,25469
105863175,25465
105868399,25457
105874630,25463
105880870,25466
105887138,25462
105893383,25464
105899576,25459
105905820,25456
105912051,25465
105918268,25460
105930013,25459
105935257,25462
105941497,25456
105947722,25455
105953966,25455
105960201,25457
105966451,25455
105971937,25458
105978152,25457
105984343,25457
105990566,25451
105996781,25451
106002030,25453
106008246,25452
