55533361,55190
55539751,55183
55545452,55172
55551651,55157
55557835,55148
55564038,55145
55569446,55140
55575657,55128
55581878,55135
55588072,55119
55594276,55107
55600483,55086
55611900,54902
55618110,54914
55624322,54900
55630527,54910
55636715,54931
55642941,54935
55649826,54956
55656075,54967
55662289,54981
55668470,54989
55674650,55002
55680092,55005
55686314,55007
55692537,55000
55698713,54999
55703871,55000
55710081,54989
55716232,54975
55722425,54971
55728660,54957
55734860,54941
55746487,54747
55752704,54768
55758877,54791
55765098,54803
55771346,54815
55777549,54824
55782771,54838
55788987,54842
55795181,54842
55801384,54840
55807593,54836
55813031,54822
55819207,54824
55825369,54809
55831592,54796
55837757,54795
55843304,54785
55849532,54777
55855723,54762
55862608,54761
55868779,54755
55874976,54749
55881167,54713
55887314,54709
55893534,54714
55899693,54717
55905877,54712
55912073,54725
55917295,54715
55923472,54724
55929692,54724
55935874,54719
55942087,54709
55947522,54717
55953684,54710
55959884,54712
55966062,54704
55972274,54715
55977501,54711
55983712,54712
55989941,54701
55996167,54708
56002313,54713
56008479,54700
56014654,54707
56020838,54717
56027067,54712
56033237,54706
56039412,54713
56045580,54728
56051779,54723
56057983,54730
56064156,54724
56071021,54726
56077221,54736
56082657,54729
56088865,54734
56095115,54721
56101301,54728
56107442,54730
56113670,54740
56119910,54736
56126132,54731
56132312,54729
56138537,54731
56144731,54737
56156118,54797
56162289,54795
56168500,54790
56174662,54802
56180824,54806
56187025,54806
56192502,54805
56198734,54812
56204850,54808
56211069,54812
56216338,54808
56222508,54809
56228688,54812
56234941,54804
56241114,54818
56246585,54813
56252800,54813
56258993,54811
56265222,54813
56271412,54812
56277608,54807
56289630,54828
56295802,54839
56302044,54845
56308265,54840
56314484,54841
56320677,54839
56326118,54843
56332307,54840
56338506,54847
56344698,54843
56350875,54844
56357074,54846
56363262,54835
56369437,54851
56375656,54842
56380885,54842
56387112,54842
56393298,54842
56399450,54850
56405616,54845
56411780,54840
56417987,54832
56424167,54803
56430346,54795
56436545,54795
56442722,54786
56448939,54784
56455122,54789
56460599,54789
56466780,54784
56472971,54790
56479164,54788
56485356,54780
56491501,54780
56497751,54782
56503994,54779
56510183,54776
56515382,54767
56521618,54770
56527797,54776
56534054,54769
56540257,54772
56546463,54770
56552664,54761
56564326,54711
56570528,54712
56576686,54711
56582883,54704
56589057,54712
56595258,54706
56601513,54706
56607757,54693
56613932,54697
56620106,54702
56625302,54702
56631503,54694
56637688,54681
56643868,54687
56649320,54689
56655530,54690
56661733,54680
56667896,54679
56674042,54683
56680219,54681
56686387,54681
56697795,54650
56711368,54647
56717606,54644
56723893,54650
56730082,54647
56736303,54645
56742493,54646
56748697,54647
56753932,54641
56760133,54644
56766310,54651
56772466,54646
56777951,54648
56784170,54645
56790428,54650
56796640,54660
56802861,54658
56809049,54657
56815250,54657
56821441,54669
56827644,54707
56833848,54718
56840012,54716
56846212,54720
56852408,54725
56858627,54725
56864823,54729
56870046,54738
56876217,54734
56882418,54739
56888628,54740
56894821,54746
56901069,54756
56907278,54755
56912704,54761
56919596,54754
56925769,54754
56931987,54759
56938178,54759
56944336,54760
56950519,54767
56956713,54768
56968078,54855
56974276,54857
56980448,54868
56986660,54872
56992823,54882
56999058,54878
57004571,54884
57010770,54896
57016958,54899
57023134,54912
57028343,54916
57034534,54914
57040754,54925
57046981,54925
57053182,54925
57059407,54923
57065602,54920
57071789,54930
57077962,54927
57084138,54935
57090350,54922
57102018,54975
57108255,54984
57114413,54994
57120611,54997
57126812,54997
57133652,55007
57138864,55010
57145072,55008
57151268,55010
57157447,55020
57162900,55024
57169061,55024
57175264,55034
57181490,55034
57186739,55040
57192977,55044
57199180,55040
57205340,55047
57211521,55039
57217739,55041
57223921,55052
57230145,55051
57236383,55051
57242553,55054
57248711,55048
57254902,55051
57261128,55057
57267297,55051
57272790,55055
57278931,55055
57285077,55047
57291276,55046
57296482,55043
57302713,55048
57308960,55042
57315161,55032
57321383,55049
57327600,55045
57333800,55042
57340623,55034
57346813,55039
57353061,55034
57359271,55037
57365431,55037
57377069,54967
57383289,54963
57389533,54948
57395708,54947
57401916,54945
57407147,54943
57413308,54941
57419556,54928
57425732,54920
57431169,54908
57437369,54915
57443585,54900
57449768,54885
57455949,54879
57461171,54873
57467426,54868
57473622,54873
57479793,54860
57485975,54858
57492120,54859
57498304,54866
57504469,54853
57510677,54888
57516879,54888
57523097,54890
57529309,54889
57535509,54885
57541687,54895
57547835,54891
57554670,54886
57560833,54892
57566278,54883
57572475,54901
57578657,54897
57584873,54908
57591063,54896
57596651,54902
57602893,54896
57609033,54905
57615226,54898
57621395,54900
57627612,54894
57633798,54898
57639970,54890
57651409,54866
57657586,54863
57663823,54855
57670055,54865
57676235,54874
57681683,54872
57687865,54880
57694056,54873
57700274,54878
57706416,54880
57712627,54867
57718836,54882
57725035,54879
57730276,54881
57736462,54879
57742658,54876
57748794,54880
57754994,54886
57761760,54890
57768039,54879
57774184,54879
57785838,54896
57792006,54897
57798184,54901
57804397,54896
57810556,54887
57815778,54887
57822008,54892
57828208,54892
57834415,54888
57840643,54893
57846828,54900
57853064,54900
57859255,54898
57864710,54892
57870918,54898
57877105,54897
57883278,54899
57889508,54899
57895701,54903
57901892,54914
57908077,54912
57919537,54971
57925742,54974
57931946,54979
57938165,54971
57944341,54979
57957342,54980
57963476,54978
57968793,54976
57975015,54984
57981900,54980
57988130,54991
57994342,54994
58000550,54996
58006770,54996
58012983,55003
58019183,55010
58025376,55009
58031632,55015
58037836,55020
58049469,55059
58055696,55067
58061881,55060
58068048,55068
58074241,55065
58080454,55077
58085666,55067
58091814,55074
58098047,55073
58103472,55066
58109670,55070
58115896,55075
58122086,55070
58128290,55069
58133504,55067
58139684,55065
58145847,55066
58152051,55061
58158206,55060
58164380,55066
58170558,55055
58176742,55063
58182928,55092
58189800,55098
58196069,55092
58202282,55097
58208459,55101
58214643,55102
58220069,55101
58226277,55097
58232505,55099
58237729,55093
58243919,55096
58250108,55098
58256312,55102
58262456,55096
58267913,55104
58274094,55095
58280300,55100
58286551,55097
58292769,55092
58298998,55097
58305190,55098
58311347,55103
58322769,55090
58328983,55093
58335163,55098
58341360,55091
58347600,55095
58353781,55092
58359969,55098
58366197,55113
58371648,55098
58377849,55098
58384002,55102
58390217,55091
58396403,55091
58403302,55094
58409499,55090
58415706,55094
58421913,55091
58428097,55089
58434276,55095
58440448,55098
58446657,55086
58458095,55105
58464304,55096
58470479,55098
58476664,55099
58482805,55095
58488984,55103
58494434,55103
58500658,55099
58505861,55105
58512045,55100
58518250,55106
58524442,55101
58530610,55103
58536780,55101
58542999,55107
58549153,55105
58555314,55109
58561529,55113
58567712,55111
58573923,55100
58580115,55114
58591785,55131
58598018,55141
58604226,55134
58610390,55139
58617221,55149
58623401,55145
58628592,55143
58634801,55154
58641001,55152
58647200,55147
58653398,55152
58659630,55161
58665813,55158
58672050,55160
58677521,55158
58683720,55164
58689904,55145
58696086,55158
58702302,55160
58708521,55156
58714726,55158
58726192,55130
58732389,55129
58738597,55119
58744813,55123
58751065,55112
58757260,55120
58762687,55100
58768883,55105
58775029,55109
58780233,55097
58786459,55112
58792681,55090
58798852,55090
58805038,55084
58811241,55087
58817409,55078
58824104,55073
58830382,55079
58836578,55068
58842761,55072
58848991,55062
58855183,55064
58861378,54754
58867592,54749
58873771,54739
58880012,54719
58886223,54713
58892440,54703
58897885,54693
58904049,54673
58910246,54664
58915448,54655
58921640,54645
58927836,54623
58934032,54618
58940232,54604
58946424,54590
58951835,54587
58958006,54585
58964179,54574
58970385,54587
58976611,54585
58982820,54588
58989057,54601
59000481,54911
59006679,54938
59012890,54949
59019109,54971
59025303,54992
59031519,55008
59038274,55029
59044458,55060
59049944,55072
59056061,55087
59062300,55104
59068535,55113
59074722,55124
59080929,55130
59086143,55134
59092299,55141
59098455,55144
59104683,55149
59110869,55151
59117064,55156
59123250,55174
59129443,55174
59135639,55329
59141821,55324
59148097,55340
59154305,55337
59160467,55353
59166645,55361
59172093,55353
59178287,55361
59183472,55367
59189665,55370
59195837,55381
59208884,55385
59215165,55400
59221434,55396
59227645,55399
59233871,55414
59240095,55415
59246326,55407
59253146,55413
59259356,55413
59270853,55404
59277092,55406
59283310,55402
59289523,55401
59295746,55400
59301197,55394
59307399,55393
59312656,55394
59318826,55395
59325072,55387
59331278,55395
59337503,55391
59343704,55389
59349917,55398
59355397,55409
59361598,55400
59367780,55403
59373962,55398
59380154,55413
59386375,55411
59392588,55413
59404001,55426
59410173,55420
59416392,55425
59422593,55418
59428793,55426
59435020,55426
59441222,55429
59447442,55434
59453647,55426
59459835,55428
59466718,55432
59472935,55431
59479140,55440
59485335,55427
59490745,55439
59496956,55432
59503159,55424
59509403,55431
59515642,55429
59521884,55424
59528106,55432
59539637,55435
59545870,55440
59552118,55440
59558296,55432
59564489,55430
59570737,55431
59576249,55435
59582462,55432
59587726,55434
59593934,55430
59600179,55427
59606406,55436
59612662,55420
59618899,55428
59624372,55425
59630625,55419
59636823,55420
59643073,55431
59649311,55421
59655542,55418
59661792,55430
59673285,55428
59680144,55431
59686385,55429
59692634,55433
59698903,55426
59705132,55439
59710626,55430
59716823,55433
59722036,55434
59728261,55430
59734503,55437
59740775,55439
59747000,55429
59753217,55447
59758712,55442
59764936,55448
59771148,55434
59777363,55446
59783584,55447
59789796,55449
59796037,55439
59802262,55440
59808550,55466
59814780,55458
59821017,55459
59827248,55464
59833482,55460
59839728,55461
59844958,55468
59851187,55469
59856644,55472
59862837,55468
59869125,55468
59875344,55464
59881596,55470
59887820,55464
59893674,55477
59899946,55475
59906174,55472
59912402,55478
59918652,55477
59924894,55475
59931095,55477
59942857,55514
59949102,55509
59955297,55510
59961536,55510
59967771,55511
59974018,55516
59979519,55521
59985762,55518
59991027,55513
59997228,55525
60003486,55520
60009770,55517
60016052,55525
60022264,55526
60027757,55527
60033974,55522
60040200,55523
60046420,55524
60052648,55531
60058865,55531
60065109,55524
60071358,55527
60077630,55522
60083825,55522
60090019,55527
60096270,55516
60103146,55514
60109452,55516
60114671,55518
60120816,55512
60126268,55513
60132448,55510
60138661,55512
60144917,55509
60151165,55509
60157412,55513
60162657,55508
60168858,55514
60175085,55502
60181307,55510
60187561,55504
60193793,55503
60200041,55502
60211836,55463
60218135,55460
60224344,55453
60230602,55451
60236799,55450
60243025,55448
60248527,55449
60254755,55447
60260012,55444
60266234,55431
60272435,55436
60278684,55437
60284954,55446
60291174,55440
60296660,55449
60302846,55445
60309062,55441
60315851,55450
60322074,55461
60328326,55455
60334541,55448
60346037,55439
60352287,55435
60358471,55436
60364684,55444
60370836,55434
60377099,55433
60382585,55439
60388747,55435
60393967,55436
60400200,55431
60406445,55426
60412637,55440
60418799,55440
60425013,55431
60431210,55430
60437409,55433
60443599,55433
60456434,55433
60462657,55427
60468938,55427
60475201,55431
60481425,55440
60487627,55426
60493814,55423
60500038,55427
60506236,55421
60511693,55416
60517867,55414
60523101,55419
60529322,55416
60536170,55417
60542391,55421
60548628,55413
60554815,55424
60561051,55414
60566513,55414
60572739,55417
60578927,55419
60585125,55411
60591294,55414
60597495,55409
60603723,55406
60615128,55397
60621334,55401
60627549,55392
60633731,55405
60639948,55401
60646128,55401
60652349,55389
60657756,55394
60663934,55399
60670086,55388
60676272,55389
60682471,55397
60688685,55391
60694877,55388
60700084,55389
60706327,55388
60712481,55389
60718699,55389
60724878,55385
60731075,55386
60737253,55390
60744071,55389
60750308,55346
60756520,55350
60762734,55349
60768962,55337
60775154,55338
60781349,55337
60786832,55339
60792028,55337
60798223,55338
60804464,55342
60810641,55343
60816819,55334
60823043,55348
60829250,55346
60834705,55338
60840915,55335
60847073,55344
60853287,55349
60859480,55339
60865694,55337
60871910,55341
60878102,55335
60889481,55318
60895687,55319
60901850,55307
60908078,55317
60914303,55323
60920442,55320
60925867,55322
60932020,55314
60938198,55307
60944389,55321
60950617,55312
60957391,55315
60963614,55314
60968833,55311
60975004,55314
60981167,55314
60987353,55313
60993570,55302
60999737,55307
61005978,55306
61012164,55305
61023841,55318
61030004,55312
61036209,55318
61042357,55319
61048563,55318
61054766,55326
61060012,55321
61066193,55324
61072375,55320
61078593,55322
61084784,55323
61091024,55324
61097274,55328
61103466,55325
61109648,55325
61115825,55334
61121992,55321
61128159,55321
61134351,55334
61140558,55329
61146751,55326
61158480,55348
61164695,55356
61171545,55353
61177722,55352
61183890,55357
61190065,55347
61194636,55354
61200807,55355
61206994,55359
61213192,55356
61219377,55358
61225566,55360
61231751,55360
61237978,55355
61243397,55364
61249565,55357
61255721,55353
61261903,55356
61268178,55341
61274420,55360
61280666,55355
61286892,55362
61293092,55367
61299246,55370
61305423,55373
61311656,55367
61317867,55369
61324043,55367
61328607,55363
61334789,55363
61341005,55362
61347182,55359
61353379,55352
61359616,55352
61365857,55358
61372076,55360
61378061,55362
61384275,55355
61390481,55340
61396670,55346
61402879,55344
61409087,55342
61415318,55331
61421574,55332
61433217,55309
61439363,55306
61445553,55305
61451749,55310
61457960,55305
61463164,55299
61469364,55306
61475556,55306
61481765,55310
61487969,55311
61494160,55305
61500334,55313
61506509,55313
61512696,55313
61518875,55312
61525053,55315
61531215,55314
61537428,55317
61543606,55319
61549810,55315
61555994,55332
61567613,55405
61573819,55400
61580048,55402
61586861,55414
61593049,55413
61598241,55413
61603807,55407
61610030,55416
61616226,55418
61622458,55416
61628680,55420
61634895,55418
61641078,55417
61647218,55423
61652694,55418
61658880,55420
61665062,55426
61671265,55416
61677428,55423
61683661,55416
61689891,55424
61696052,55419
61708877,55430
61715159,55437
61721398,55430
61727629,55433
61732864,55429
61739085,55435
61745280,55444
61751448,55426
61757655,55439
61763818,55429
61770054,55437
61776286,55440
61781703,55437
61787948,55437
61794137,55447
61800328,55441
61807076,55446
61813304,55438
61819530,55451
61831014,55466
61837173,55465
61843414,55461
61849576,55467
61855760,55470
61861981,55464
61866696,55474
61872877,55466
61879092,55478
61885289,55477
61891479,55471
61897725,55439
61903921,55471
61910092,55471
61916320,55471
61922484,55481
61928662,55476
61934887,55470
61941080,55470
61947253,55479
61953419,55473
61959657,55486
61965856,55453
61972041,55435
61978215,55445
61984383,55447
61990589,55445
61996807,55442
62001335,55428
62007465,55435
62014212,55422
62020469,55427
62026670,55417
62032873,55414
62039111,55418
62045321,55418
62051512,55412
62056968,55418
62063150,55410
62069334,55405
62075588,55402
62081804,55405
62088029,55400
62094222,55401
62105637,55349
62111821,55346
62118023,55349
62124222,55349
62130390,55348
62135076,55347
62141252,55348
62147436,55344
62153665,55343
62159866,55342
62166073,55335
62172283,55336
62178428,55341
62184646,55342
62190813,55339
62197008,55336
62203253,55331
62209430,55331
62215656,55326
62221854,55329
62228747,55330
62240129,55301
62246332,55306
62252553,55303
62258716,55300
62264852,55302
62270302,55297
62276543,55296
62282765,55293
62288951,55290
62295140,55285
62301343,55296
62307603,55288
62313808,55281
62320020,55294
62325240,55282
62331424,55280
62337652,55272
62343826,55271
62350029,55275
62356218,55271
62362399,55271
62368607,55272
62374773,55086
62380977,55076
62387153,55065
62393383,55058
62399520,55048
62404163,55030
62410338,55019
62416522,55002
62422755,54981
62428939,54963
62435763,54948
62441938,54924
62448117,54907
62454321,54894
62459509,54876
62465696,54843
62471849,54811
62478079,54776
62484304,54746
62490502,54719
62496713,54697
62502970,54684
62514601,54149
62520779,54119
62526965,54090
62533154,54062
62538334,54044
62543776,54014
62549969,53988
62556191,53984
62562394,53969
62568638,53963
62574825,53951
62581022,53937
62587181,53938
62593389,53940
62598579,53944
62604763,53954
62610972,53965
62617181,53979
62623380,53993
62629603,53996
62635799,54005
62641995,54003
62648814,53699
62655039,53698
62661204,53693
62667368,53698
62672830,53695
62678036,53690
62684276,53684
62690464,53690
62696677,53686
62702822,53673
62708992,53678
62715203,53670
62721392,53663
62727591,53649
62733010,53651
62739207,53641
62745407,53639
62751617,53638
62757832,53636
62764039,53632
62770298,53628
62776502,53626
62782685,53619
62788879,53640
62795072,53640
62801279,53650
62807511,53668
62812076,53627
62818291,53684
62824537,53702
62830775,53712
62837012,53713
62843222,53741
62849431,53755
62856212,53753
62862405,53763
62867828,53790
62874079,53801
62880315,53821
62886533,53829
62892748,53853
62898968,53863
62905157,53872
62911359,53896
62922789,54425
62929027,54443
62935282,54464
62941495,54483
62952811,54497
62959054,54520
62965387,54538
62971645,54550
62977886,54577
62984124,54594
62990357,54612
62995569,54617
63001828,54638
63008064,54657
63014300,54668
63020596,54688
63026798,54707
63033056,54721
63039291,54732
63045560,54739
63051813,55001
63058012,55000
63064229,55006
63070476,55005
63075830,55014
63082075,55015
63088324,55010
63094546,55031
63100776,55021
63106977,55028
63113218,55022
63119435,55027
63125666,55030
63130885,55033
63137105,55050
63143291,55055
63149508,55048
63155774,55059
63161964,55066
63168199,55057
63174438,55068
63180696,55077
63192385,55257
63198611,55255
63204805,55259
63209321,55256
63215544,55245
63221807,55265
63228053,55260
63234257,55260
63240475,55263
63246761,55265
63253006,55266
63259191,55257
63264576,55258
63270768,55272
63276981,55274
63283211,55272
63290076,55266
63296311,55276
63302537,55269
63308770,55272
63314998,55279
63326411,55309
63332661,55303
63338898,55301
63343653,55304
63349865,55308
63356084,55313
63362345,55310
63368586,55307
63374774,55312
63381014,55327
63387261,55319
63393473,55330
63398702,55318
63404915,55312
63411110,55326
63417331,55318
63423598,55327
63429785,55335
63436044,55327
63442257,55316
63448517,55323
63454759,55323
63460966,55313
63467159,55301
63473379,55306
63478109,55305
63484361,55307
63490607,55298
63496750,55294
63503662,55298
63509906,55301
63516133,55297
63522378,55283
63528595,55295
63533795,55282
63540001,55289
63546187,55298
63552418,55291
63558685,55294
63564895,55284
63571151,55279
63577372,55281
63583647,55284
63589804,55281
63601511,55265
63607691,55265
63612931,55261
63619176,55266
63625366,55264
63631605,55263
63637817,55265
63644053,55264
63650290,55267
63656507,55269
63662744,55263
63668242,55262
63674480,55269
63680713,55259
63686894,55267
63693158,55263
63699407,55259
63705657,55275
63712470,55265
63718774,55268
63724985,55265
63736437,55276
63742666,55275
63747401,55270
63753612,55271
63759831,55271
63766073,55270
63772325,55274
63778536,55267
63784756,55259
63790946,55264
63797165,55263
63802403,55266
63808607,55262
63814789,55256
63820985,55252
63827225,55258
63833457,55253
63839733,55244
63845953,55241
63852218,55243
63858449,55256
63870213,55169
63876471,55160
63881733,55166
63887969,55157
63894221,55156
63900426,55163
63906703,55153
63912921,55158
63919147,55163
63926019,55155
63932246,55156
63937721,55154
63943935,55147
63950204,55150
63956498,55160
63962742,55154
63968957,55152
63975206,55156
63981461,55145
63987671,55144
63993892,55148
64005290,55122
64011482,55122
64017707,55125
64023130,55116
64029321,55118
64035488,55125
64041713,55126
64047950,55114
64054123,55119
64060330,55128
64066493,55119
64071702,55115
64077876,55117
64084079,55122
64090330,55118
64096520,55120
64102796,55126
64109040,55124
64115270,55122
64121478,55122
64127696,55129
64140032,55104
64146249,55103
64151677,55101
64156875,55102
64163066,55099
64169275,55093
64175523,55099
64181725,55094
64187908,55091
64194089,55090
64206872,55082
64213094,55085
64219282,55078
64225477,55066
64231699,55074
64237881,55076
64244124,55072
64250334,55065
64256568,55066
64268279,55007
64274506,55002
64280726,55001
64285270,54995
64291433,54996
64297626,54999
64303795,55003
64310012,54996
64316237,54988
64322455,54992
64328706,54996
64334885,54992
64340353,54986
64346567,54990
64353343,54990
64359530,54994
64365706,54985
64371877,54989
64378016,54989
64384176,54986
64390376,54991
64396580,54991
64402772,55004
64408962,55004
64415127,54997
64419691,54996
64425861,54995
64432105,54997
64438281,54993
64444501,54994
64450728,54996
64456882,54996
64463082,54994
64469196,54998
64475403,54990
64481590,54992
64487755,54997
64493911,54994
64500111,54988
64506309,54989
64512522,54986
64518756,54996
64524987,54993
64531190,54998
64542847,55013
64549022,55010
64555205,55017
64561983,55020
64568253,55013
64574426,55027
64580706,55030
64586954,55023
64593149,55029
64599351,55030
64605557,55023
64611751,55026
64616948,55025
64623127,55031
64629346,55034
64635514,55027
64641721,55029
64647914,55033
64654145,55037
64660354,55035
64666532,55034
64678167,55053
64684328,55051
64689538,55052
64695000,55045
64701211,55056
64707385,55054
64713607,55053
64719799,55054
64726003,55051
64732160,55053
64738342,55052
64744503,55055
64749732,55055
64755904,55049
64762108,55062
64768324,55055
64775141,55060
64781379,55064
64787601,55061
64793808,55067
64800019,55063
64811663,55089
64817877,55091
64823058,55092
64829238,55090
64835429,55092
64841627,55094
64847810,55092
64854050,55094
64860232,55095
64866433,55097
64872629,55094
64878797,55095
64884258,55092
64890434,55087
64896621,55095
64902809,55090
64909016,55088
64915260,55099
64921495,55093
64927699,55104
64933910,55090
64940124,55093
64946327,55060
64952467,55059
64957693,55057
64963843,55055
64969280,55055
64975440,55056
64981694,55064
64988588,55060
64994774,55066
65000968,55063
65007141,55057
65013336,55056
65018525,55053
65024688,55057
65030863,55055
65037085,55056
65043295,55055
65049541,55053
65055713,55063
65061889,55055
65068135,55055
65074337,55054
65085978,55050
65092145,55053
65098346,55058
65103548,55052
65109776,55058
65115935,55055
65122165,55057
65128382,55051
65134569,55060
65140773,55061
65147011,55054
65153215,55058
65159368,55061
65165565,55061
65171770,55052
65177973,55061
65184156,55058
65190386,55065
65197203,55062
65203409,55054
65209627,55059
65221222,55079
65227400,55083
65232607,55091
65238049,55091
65244264,55096
65250433,55099
65256661,55091
65262850,55094
65269024,55094
65275229,55094
65281395,55097
65287509,55100
65293697,55099
65299930,55099
65306119,55104
65312304,55113
65318513,55098
65324770,55105
65331004,55101
65337214,55104
65343385,55103
65354793,55156
65360997,55145
65366460,55148
65372692,55147
65378927,55147
65385110,55155
65391314,55160
65397469,55151
65403675,55154
65410510,55152
65416706,55150
65422905,55151
65428102,55158
65434351,55157
65440523,55154
65453575,55155
65459790,55151
65466077,55161
65472268,55155
65478455,55153
65484678,55190
65490908,55185
65496117,55186
65502348,55188
65507800,55184
65514049,55190
65520212,55193
65526400,55192
65532625,55189
65538853,55201
65545023,55196
65551228,55196
65556443,55199
65562643,55199
65568767,55212
65574944,55207
65581162,55208
65587379,55211
65593601,55216
65599782,55220
65606010,55211
65612241,55215
65618442,55220
65625290,55229
65630725,55231
65636950,55224
65642480,55225
65648678,55216
65654868,55227
65661039,55223
65667237,55218
65673428,55221
65679625,55215
65685817,55216
65691006,55222
65697196,55213
65703422,55222
65709613,55215
65715795,55220
65722024,55222
65728248,55218
65734437,55223
65740611,55218
65746796,55223
65758479,55243
65764693,55238
65770916,55237
65776472,55229
65782717,55230
65788974,55241
65795242,55240
65801503,55240
65807714,55240
65813894,55243
65820099,55239
65826328,55244
65833207,55239
65839457,55236
65845720,55242
65851946,55246
65858152,55247
65864396,55253
65870641,55244
65876859,55249
65883062,55243
65894556,55253
65900063,55262
65906348,55258
65911611,55261
65917842,55263
65924071,55264
65930298,55265
65936548,55262
65942791,55271
65949000,55270
65955172,55273
65961366,55264
65966869,55267
65973105,55277
65979355,55265
65985593,55269
65991816,55284
65998027,55275
66004240,55281
66010455,55289
66016704,55287
66028100,55332
66033574,55336
66039800,55333
66045623,55334
66051883,55323
66058132,55334
66064364,55339
66070610,55334
66076865,55333
66083084,55336
66089282,55342
66095504,55334
66100993,55340
66107209,55345
66113443,55340
66119715,55342
66125943,55341
66132215,55358
66138464,55351
66144693,55357
66150875,55347
66162331,55374
66167820,55373
66174043,55370
66179278,55371
66185503,55361
66191770,55366
66198006,55364
66204239,55364
66210425,55367
66216678,55357
66222896,55365
66229135,55365
66234628,55361
66240854,55362
66247091,55363
66253360,55356
66260243,55352
66266505,55352
66272742,55354
66279004,55345
66285222,55343
66296693,55183
66302160,55179
66308391,55182
66314619,55180
66320775,55178
66327055,55172
66333315,55166
66339539,55174
66345803,55163
66352021,55169
66358206,55160
66364479,55160
66369698,55154
66375945,55160
66382168,55156
66388370,55160
66394647,55148
66400915,55154
66407133,55155
66413337,55147
66419580,55152
66431257,55123
66436530,55130
66442797,55113
66449027,55124
66455272,55116
66461498,55114
66467762,55103
66474683,55112
66480930,55116
66487146,55118
66493367,55115
66499630,55102
66505108,55112
66511343,55106
66517583,55111
66523809,55108
66529989,55099
66536207,55100
66542380,55102
66548558,55098
66554799,55092
66566230,55025
66571696,55020
66577885,55021
66584139,55019
66589417,55022
66595676,55025
66601928,55030
66608206,55021
66614438,55018
66620648,55015
66626885,55012
66633136,55015
66638614,55020
66644810,55015
66651035,55021
66657294,55019
66663562,55015
66669788,55018
66676002,55018
66682211,55009
66689048,55013
66707062,54975
66713281,54982
66718798,54964
66725026,54966
66731270,54961
66737471,54976
66743694,54969
66749929,54967
66756086,54969
66762266,54970
66767467,54970
66773684,54976
66779844,54972
66786071,54968
66792283,54978
66798533,54960
66804762,54965
66810960,54964
66817187,54965
66823364,54971
66829592,54954
66835758,54948
66841210,54948
66847441,54953
66852683,54949
66858865,54952
66865120,54946
66871292,54947
66877496,54942
66883774,54943
66889944,54946
66896177,54938
66903000,54941
66909264,54945
66915510,54945
66921740,54941
66927904,54938
66934128,54933
66940312,54933
66946529,54933
66952767,54937
66958916,54940
66970595,54918
66975799,54919
66981970,54911
66987433,54909
66993639,54912
66999831,54915
67006028,54917
67012219,54909
67018433,54920
67024643,54908
67030848,54923
67037103,54927
67042312,54924
67048487,54920
67054684,54925
67060847,54933
67067113,54936
67073305,54941
67079512,54932
67085680,54938
67091851,54931
67098037,54934
67104225,54926
67109679,54934
67116513,54930
67121716,54931
67127885,54938
67134108,54934
67140348,54926
67146532,54927
67152767,54931
67158946,54927
67165145,54934
67171348,54930
67176752,54942
67182987,54938
67189208,54929
67195428,54934
67201640,54934
67207894,54929
67214104,54929
67220302,54933
67226450,54935
67232648,54932
67238837,54951
67244099,54951
67250289,54953
67255756,54956
67261980,54950
67268184,54946
67274411,54964
67280621,54957
67286821,54965
67293011,54957
67299172,54956
67305332,54956
67310503,54955
67316735,54962
67322949,54963
67329784,54959
67336032,54962
67342202,54963
67348389,54967
67354585,54962
67360795,54972
67366933,54977
67377605,55001
67383801,54998
67390004,55002
67396252,54992
67402464,54987
67408630,55002
67414813,54987
67421006,54992
67427219,54992
67433433,54995
67439649,54992
67445119,54996
67451336,54990
67457494,55000
67463701,54998
67469920,54989
67476115,54992
67482311,54998
67488471,54992
67494709,54995
67500907,54990
67511594,54969
67517756,54971
67523930,54963
67530123,54969
67536969,54963
67543251,54965
67549449,54960
67555655,54962
67561825,54956
67568031,54967
67574246,54970
67579712,54956
67585932,54958
67592138,54964
67598344,54956
67604528,54959
67610757,54952
67616947,54963
67623105,54956
67629299,54959
67635474,54954
67646225,54946
67652421,54951
67658610,54944
67664786,54941
67670229,54948
67676408,54942
67682634,54939
67688824,54941
67694996,54942
67701153,54943
67707359,54945
67713519,54945
67718777,54949
67724992,54952
67731179,54945
67737418,54952
67743603,54952
67750365,54950
67756522,54949
67762682,54948
67768866,54945
67775058,54946
67785679,54943
67791868,54946
67798085,54943
67804282,54946
67810502,54941
67816717,54938
67822898,54943
67829110,54945
67835327,54946
67841501,54942
67847693,54945
67853166,54945
67859384,54943
67865585,54946
67871805,54944
67878012,54949
67884272,54950
67890463,54955
67896694,54961
67902864,54943
67909097,54957
67920556,54962
67926749,54966
67932955,54965
67939181,54967
67951264,54964
67957519,54968
67964417,54963
67970692,54968
67976858,54964
67982365,54975
67988599,54977
67994852,54976
68001097,54972
68007293,54969
68013523,54984
68019772,54978
68026013,54972
68032227,54977
68038448,54978
68049896,54985
68056126,54981
68062327,54981
68068489,54970
68074009,54975
68080188,54973
68086372,54973
68092620,54974
68098796,54976
68104992,54967
68111198,54970
68116409,54963
68122620,54965
68128809,54955
68134999,54968
68141197,54966
68147375,54962
68153556,54963
68159754,54963
68165927,54965
68172164,54956
68183838,54947
68190039,54954
68196242,54952
68202478,54947
68207707,54947
68213864,54953
68220096,54948
68226317,54948
68232505,54952
68238703,54946
68244837,54942
68250280,54951
68256449,54945
68262635,54945
68268797,54939
68274954,54944
68281155,54943
68287345,54945
68293587,54950
68299807,54933
68305988,54948
68317350,54947
68322771,54953
68328960,54946
68335154,54954
68341381,54947
68346611,54954
68352800,54955
68359017,54957
68365259,54949
68371457,54945
68377665,54955
68383824,54952
68390647,54954
68396821,54955
68403063,54950
68409274,54949
68415469,54955
68421701,54947
68427865,54946
68434077,54952
68440263,54952
68451903,54963
68457096,54966
68463298,54963
68469498,54968
68475705,54967
68481137,54975
68487334,54965
68493493,54967
68499686,54966
68505876,54966
68512064,54975
68518302,54961
68524546,54966
68530753,54971
68536985,54966
68543175,54973
68549379,54966
68555606,54964
68561837,54967
68568011,54963
68574170,54968
68580364,54971
68586518,54991
68592725,54991
68599626,54983
68605854,54989
68611085,54991
68617281,54993
68623493,54987
68629696,54989
68635886,54991
68642120,54988
68648314,54992
68654498,54989
68660679,54991
68666829,54986
68673043,54989
68679211,54984
68685403,54983
68691573,54980
68697760,54980
68703914,54982
68710111,54979
68716289,54981
68726931,54952
68733192,54960
68739431,54952
68745627,54955
68751836,54952
68758055,54955
68764218,54950
68770403,54956
68776550,54949
68782746,54953
68788965,54948
68795164,54949
68800655,54941
68806902,54948
68813767,54952
68819989,54948
68826197,54950
68832372,54949
68838592,54949
68844783,54948
68850978,54950
68861694,54946
68867872,54953
68874056,54953
68880272,54951
68885755,54956
68892002,54950
68898182,54943
68904379,54942
68910606,54951
68916838,54952
68923042,54951
68929193,54951
68935392,54945
68941592,54954
68947826,54942
68954021,54944
68960216,54944
68966390,54944
68972615,54953
68978775,54950
68984974,54956
68995717,54954
69001898,54962
69008108,54961
69014298,54960
69020380,54961
69026643,54963
69032821,54966
69038985,54960
69045153,54959
69051363,54960
69057582,54970
69063816,54967
69070047,54973
69075233,54961
69081408,54967
69087606,54967
69093803,54971
69099964,54976
69106171,54978
69112345,54977
69118512,54970
69130148,54987
69136361,54988
69142595,54984
69148812,54992
69155013,54988
69161200,54993
69167412,54995
69173627,54987
69179832,54997
69186024,54999
69192241,54989
69204331,54999
69210636,54993
69216924,54991
69223187,54995
69229422,54997
69236296,54994
69242584,54996
69248823,54998
69260248,55000
69265628,55003
69271831,54996
69278134,54996
69284391,54991
69289649,54987
69295878,54988
69302100,54987
69308318,54983
69314548,54992
69320735,54998
69326950,54985
69333175,54974
69339405,54982
69345667,54975
69351898,54975
69358130,54969
69364360,54972
69370567,54969
69376746,54969
69382967,54971
69394658,54960
69399852,54960
69406090,54956
69412350,54965
69418569,54949
69424091,54955
69430326,54959
69436585,54949
69442823,54956
69449698,54951
69455942,54953
69462167,54952
69468396,54954
69474611,54960
69479863,54959
69485996,54955
69492266,54955
69498514,54964
69504737,54954
69510925,54961
69517139,54959
69528909,54953
69534390,54955
69540598,54959
69546843,54962
69553039,54962
69558255,54967
69564447,54957
69570695,54959
69576845,54961
69583070,54957
69589282,54959
69595514,54961
69601742,54955
69607984,54958
69613518,54967
69619752,54963
69625956,54966
69632196,54967
69638403,54962
69644659,54964
69650841,54966
69657049,54968
69663892,54974
69669147,54976
69675335,54971
69681487,54973
69687712,54971
69693218,54976
69699461,54975
69705695,54968
69711918,54968
69718131,54976
69724364,54974
69730584,54973
69736804,54975
69742965,54973
69748159,54977
69754345,54975
69760588,54984
69766827,54975
69773057,54974
69779292,54976
69785483,54976
69791723,54979
69802429,54993
69808600,54985
69814811,54982
69821028,54986
69827286,54983
69833498,54992
69839762,55000
69845967,54991
69852228,54994
69858419,54986
69864655,54993
69871476,54989
69877749,54991
69883199,54989
69889454,54994
69895682,54996
69901906,54994
69908105,54994
69914324,54991
69920551,55006
69926800,54995
69937516,54977
69943754,54979
69950004,54980
69956210,54967
69962414,54971
69967918,54967
69974173,54969
69980417,54964
69986645,54972
69992863,54966
69999034,54965
70005265,54968
70011514,54972
70016720,54963
70022992,54963
70029229,54969
70035468,54966
70041681,54970
70047897,54965
70054124,54964
70060344,54961
70071046,54970
70077268,54961
70084085,54960
70090393,54957
70096608,54961
70102103,54953
70108338,54958
70114577,54955
70120814,54956
70127014,54954
70133206,54959
70139480,54956
70145714,54964
70151931,54956
70158148,54956
70164403,54961
70170610,54961
70176847,54958
70183066,54963
70189331,54968
70195556,54964
70206323,54971
70212617,54972
70218873,54969
70225103,54971
70231340,54965
70236852,54968
70243071,54969
70249316,54972
70255512,54969
70261757,54970
70267949,54965
70274187,54967
70280445,54966
70286726,54967
70291951,54971
70298835,54977
70305072,54971
70311300,54970
70317480,54974
70323690,54976
70329833,54974
70340473,54990
70346663,54998
70352894,54985
70359129,54992
70365331,54990
70370809,54992
70376995,54995
70383199,54993
70389399,54989
70395557,54999
70401756,54991
70407935,54998
70414147,54993
70420337,55004
70425513,55001
70431701,55006
70437894,55005
70444140,54999
70457178,55004
70463461,55009
70474258,55018
70480431,55022
70486635,55029
70492843,55035
70499049,55027
70504528,55020
70510770,55029
70517540,55029
70523767,55030
70529967,55024
70536152,55025
70542346,55029
70548579,55019
70554833,55031
70561054,55026
70567243,55020
70573450,55025
70579639,55020
70585900,55028
70592047,55025
70598232,55015
70608997,54985
70615204,54991
70621393,54983
70627587,54985
70633774,54979
70639954,54985
70646171,54986
70652368,54978
70658530,54983
70664709,54976
70670892,54978
70677096,54988
70683300,54970
70689551,54974
70695006,54976
70701223,54970
70707429,54981
70713624,54968
70719845,54979
70726613,54979
70732834,54980
70743575,54971
70749806,54968
70755973,54967
70762189,54961
70768383,54979
70773819,54975
70780007,54974
70786186,54985
70792355,54978
70798545,54971
70804777,54969
70810954,54972
70817089,54966
70823297,54966
70829507,54969
70835739,54966
70841919,54963
70848166,54976
70854383,54966
70860526,54965
70866734,54970
70877462,54977
70883646,54979
70889854,54983
70896099,54973
70902342,54974
70908546,54978
70914769,54978
70920955,54972
70927170,54982
70933977,54982
70940228,54985
70946473,54988
70952718,54984
70958926,54990
70965156,54983
70970642,54986
70976858,54992
70983068,54985
70989323,54986
70995479,54986
71001698,54985
71012416,55003
71018617,55005
71024810,54996
71030987,55001
71037208,54998
71043355,55008
71048814,55004
71054988,54996
71061150,55001
71067308,54999
71073509,55002
71079722,55006
71085953,54999
71092159,55001
71098364,54995
71103543,55003
71109743,55002
71115975,55001
71122193,55003
71128376,55002
71134548,55011
71146022,55001
71152213,55003
71158419,55005
71164628,54994
71170815,55005
71176967,54999
71183234,55001
71189461,54997
71195673,54999
71201891,54985
71208070,54986
71214251,54990
71220445,54992
71226643,54987
71232820,54992
71238001,54982
71244192,54978
71250374,54971
71256507,54976
71262706,54979
71268927,54976
71279594,54946
71285783,54949
71291985,54951
71298217,54943
71304413,54949
71310618,54956
71316807,54948
71322986,54942
71329162,54947
71335338,54948
71341534,54951
71347713,54945
71354495,54944
71360752,54946
71366936,54946
71372427,54949
71378613,54935
71384828,54942
71390987,54938
71397201,54937
71403433,54944
71414173,54926
71420371,54932
71426559,54922
71432775,54929
71438955,54924
71445174,54926
71451397,54929
71456827,54937
71463084,54929
71469268,54930
71475471,54933
71481689,54931
71487907,54930
71494137,54932
71500332,54927
71506536,54932
71511771,54936
71517935,54926
71524169,54927
71530351,54931
71536551,54929
71542766,54939
71553372,54949
71559519,54951
71566266,54951
71572500,54948
71578690,54957
71584862,54951
71591070,54953
71597238,54958
71603436,54950
71609619,54957
71615801,54955
71621972,54960
71628147,54960
71634361,54959
71640543,54964
71646002,54954
71652204,54976
71658390,54967
71664543,54971
71670738,54970
71676970,54977
71687758,54987
71700575,54990
71706807,54991
71713090,54987
71719294,54990
71725532,54999
71731735,54996
71737903,54985
71744091,54985
71750275,54994
71756514,54997
71762800,54993
71769086,54994
71774556,54990
71780803,54992
71787704,54990
71793932,54995
71800188,54998
71806436,54999
71817266,55012
71823492,55006
71829751,55004
71835995,55004
71842225,55001
71848432,55000
71854678,54999
71860911,54993
71866401,54994
71872625,54992
71878829,54983
71885017,54987
71891290,54981
71897504,54983
71903761,54989
71908952,54982
71915231,54979
71921485,54979
71927765,54971
71934005,54969
71940253,54968
71950966,54941
71957159,54929
71963394,54938
71969627,54937
71975845,54937
71982073,54941
71988272,54941
71995081,54932
72000620,54923
72006848,54929
72013061,54923
72019289,54925
72025518,54927
72031756,54932
72038018,54922
72043237,54927
72049494,54934
72055757,54924
72061964,54925
72068226,54925
72074442,54926
72085173,54916
72091384,54925
72097520,54913
72103718,54914
72109886,54916
72116112,54922
72122307,54919
72128532,54914
72134749,54917
72140934,54911
72147164,54907
72153366,54911
72159534,54912
72165778,54919
72171995,54917
72177492,54923
72183696,54916
72189887,54905
72196094,54908
72202308,54911
72209159,54920
72219953,54921
72226183,54919
72232408,54920
72238634,54925
72244812,54928
72250994,54924
72257213,54921
72263397,54924
72269569,54918
72275017,54912
72281210,54925
72287408,54922
72293602,54917
72299797,54918
72306012,54927
72312203,54924
72318454,54929
72324695,54917
72330893,54922
72337122,54916
72343320,54922
72354083,54950
72360265,54946
72366469,54946
72372667,54947
72378861,54954
72385109,54939
72391276,54945
72397469,54947
72403688,54945
72409096,54938
72415366,54947
72422178,54950
72428440,54954
72434674,54954
72440923,54952
72447176,54958
72452443,54948
72458748,54951
72465009,54962
72471237,54945
72477466,54953
72488188,54974
72494388,54978
72500576,54981
72506823,54971
72513023,54975
72519272,54977
72525542,54980
72531788,54987
72538022,54979
72543510,54977
72549733,54975
72555916,54985
72562126,54978
72568320,54980
72574599,54980
72580844,54981
72586402,54980
72592617,54984
72598874,54987
72605072,54984
72611300,54989
72616474,54987
72622706,55013
72628922,55010
72635763,55011
72641999,55013
72648245,55016
72654459,55013
72660709,55004
72666942,55023
72673159,55019
72678607,55026
72684831,55020
72691057,55017
72697308,55020
72703517,55023
72709777,55021
72715998,55027
72721204,55027
72727438,55031
72733650,55027
72739913,55037
72746125,55038
72751610,55028
72763048,55015
72769293,55021
72775506,55010
72781765,55008
72787949,55002
72794202,55007
72800417,55011
72806695,54997
72812184,55003
72818436,55035
72824687,54999
72830912,54995
72837154,54991
72843918,54996
72850159,54989
72855397,54994
72861685,54992
72867871,54986
72874064,54985
72880307,54985
72885789,54976
72897218,54948
72903373,54943
72909613,54940
72915847,54937
72922082,54944
72928298,54946
72934506,54940
72940692,54940
72953766,54947
72959990,54943
72966235,54941
72972466,54941
72978674,54943
72984910,54940
72991157,54940
72997400,54935
73003644,54936
73009860,54936
73015085,54937
73026708,54935
73032889,54930
73039081,54930
73045269,54929
73051494,54931
73057705,54934
73064561,54929
73070788,54920
73076961,54926
73082523,54928
73088756,54934
73094966,54925
73101141,54930
73107352,54929
73113610,54926
73119847,54933
73125037,54932
73131257,54928
73137483,54930
73143717,54930
73149159,54935
73160503,54945
73166710,54942
73172903,54946
73179121,54943
73185327,54939
73191494,54943
73197666,54943
73203865,54947
73210088,54943
73216281,54944
73222470,54950
73228653,54944
73234873,54949
73241073,54947
73247268,54945
73253523,54948
73258959,54952
73265193,54953
73271985,54960
73278147,54956
73283320,54958
73289501,54955
73295717,54985
73301868,54983
73308085,54977
73314288,54980
73320469,54973
73326678,54976
73332852,54977
73339023,54977
73345249,54980
73351421,54978
73356810,54981
73363008,54977
73369172,54981
73375392,54978
73381624,54985
73387878,54985
73393428,54984
73399638,54986
73405845,54986
73412058,54983
73418319,54982
73429688,55013
73435902,55014
73442110,55016
73448272,55015
73454455,55020
73460657,55012
73466843,55012
73473080,55014
73479854,55011
73486147,55012
73491558,55013
73497766,55014
73503943,55027
73510124,55024
73516344,55021
73522538,55019
73527783,55017
73533994,55022
73540222,55027
73546437,55030
73552633,55025
73558089,55024
73564287,55054
73570458,55053
73576657,55056
73582874,55057
73589078,55058
73595259,55062
73601441,55056
73607639,55056
73613827,55058
73620031,55059
73625237,55067
73631406,55059
73637587,55067
73643820,55065
73650043,55068
73656305,55068
73662498,55064
73668723,55068
73674885,55062
73681090,55062
73687239,55062
73693401,55058
73704988,55025
73711151,55024
73717388,55021
73723570,55022
73729794,55031
73735989,55020
73742165,55021
73748359,55020
73754549,55015
73759750,55061
73765910,55024
73772126,55014
73778358,55024
73784544,55013
73790748,55025
73796982,55020
73802434,55033
73808643,55017
73814822,55018
73821000,55020
73826205,55012
73832423,55016
73838611,55004
73844797,55007
73850985,55007
73857217,55005
73863449,55009
73869693,55007
73875911,55008
73882132,55013
73888316,55008
73893758,55010
73899961,55012
73906851,55010
73913029,55007
73919235,55012
73925428,55008
73931649,55009
73936873,55015
73943084,55007
73949272,55005
73955464,55008
73960902,55009
73967097,55009
73978481,55012
73984702,55015
73990883,55013
73997107,55015
74003326,55011
74009538,55014
74015755,55005
74021952,55006
74028165,55006
74034340,55012
74040531,55015
74046729,55015
74052908,55005
74059123,55016
74065308,55010
74071496,55016
74077687,55016
74083880,55012
74090069,55015
74095533,55011
74101763,55015
74113811,55036
74120051,55035
74126246,55033
74132476,55034
74138663,55037
74144843,55044
74150995,55035
74157209,55031
74163419,55033
74168816,55041
74175031,55034
74181224,55037
74187460,55038
74200231,55038
74206471,55032
74212699,55046
74218890,55043
74224335,55038
74230534,55041
74242015,55069
74248233,55074
74254463,55062
74260671,55068
74266852,55064
74273071,55064
74279271,55069
74285473,55065
74291633,55066
74297050,55071
74303241,55070
74309435,55065
74315653,55070
74321851,55073
74328086,55074
74335010,55073
74340214,55069
74346368,55076
74352549,55073
74358760,55079
74364912,55077
74371120,55078
74377310,55108
74383496,55108
74389684,55113
74395886,55117
74402103,55110
74408302,55114
74414451,55111
74420639,55120
74426778,55124
74432198,55125
74438411,55117
74444566,55122
74450752,55112
74456962,55128
74463160,55120
74469342,55124
74475512,55120
74481745,55119
74487939,55117
74494148,55130
74499349,55128
74505533,55124
74511747,55127
74517915,55124
74524166,55125
74530367,55126
74536596,55120
74543373,55122
74549568,55117
74555753,55118
74561952,55107
74567411,55119
74573597,55109
74579809,55106
74586033,55110
74592216,55103
74598403,55104
74604602,55106
74610825,55110
74616385,55097
74622576,55103
74628774,55098
74633984,55098
74640183,55091
74651924,55093
74658137,55088
74664292,55086
74670507,55087
74676698,55085
74682904,55086
74689080,55092
74695255,55083
74700738,55086
74706878,55097
74713053,55089
74719261,55078
74725458,55090
74731693,55086
74737880,55096
74744093,55091
74749264,55088
74756090,55087
74762290,55080
74767835,55086
74773993,55087
74785640,55092
74791864,55096
74798080,55085
74804275,55089
74810453,55092
74816630,55090
74822813,55103
74829031,55087
74835239,55096
74841414,55098
74847638,55094
74853845,55095
74860070,55099
74866273,55092
74872461,55091
74878641,55091
74883867,55095
74890011,55098
74896243,55098
74901677,55107
74907901,55096
74914124,55096
74920318,55122
74926500,55120
74932741,55126
74938927,55108
74945111,55118
74951301,55122
74957535,55117
74964322,55121
74970500,55121
74975693,55121
74981872,55121
74988120,55126
74994353,55122
75000591,55128
75006755,55122
75012912,55127
75018388,55130
75024596,55130
75030769,55127
75035993,55125
75042190,55130
75048399,55127
75060053,55148
75066231,55142
75072430,55144
75078660,55144
75084849,55137
75091055,55148
75097205,55153
75103387,55147
75109530,55145
75115762,55149
75121911,55155
75128122,55153
75134301,55144
75140488,55148
75146684,55154
75151862,55162
75158110,55157
75164272,55162
75171081,55167
75177332,55146
75183514,55148
75195165,55186
75201387,55190
75207584,55184
75213807,55180
75220009,55181
75226178,55179
75232376,55178
75238603,55183
75244817,55185
75250064,55176
75256307,55179
75262505,55180
75268707,55177
75274890,55184
75281073,55186
75286503,55190
75292699,55185
75298873,55186
75305063,55182
75310270,55182
75316515,55181
75322757,55189
75328906,55191
75335146,55196
75341342,55198
75347528,55187
75353746,55196
75359911,55186
75366122,55194
75372335,55189
75378531,55189
75384758,55184
75390952,55182
75397153,55181
75403369,55177
75409612,55170
75415812,55170
75421271,55163
75427455,55169
75433637,55169
75439811,55167
75452589,55162
75464081,55128
75470332,55132
75476517,55134
75482738,55143
75488898,55136
75495090,55146
75501285,55137
75507464,55134
75512911,55140
75519083,55141
75525240,55133
75531476,55139
75537732,55131
75543940,55131
75549122,55128
75555336,55135
75561537,55132
75567756,55134
75573908,55136
75579387,55132
75585541,55130
75591761,55134
75597913,55126
75604797,55129
75610984,55124
75617233,55127
75623444,55125
75629634,55127
75635827,55122
75642028,55130
75648189,55122
75654413,55122
75660575,55121
75666793,55118
75672961,55117
75679142,55123
75684372,55120
75690572,55122
75696757,55123
75702918,55120
75709105,55121
75714543,55116
75720763,55127
75726998,55122
75738431,55136
75744624,55129
75750850,55134
75757082,55129
75763281,55133
75769486,55132
75775655,55132
75781837,55137
75787311,55133
75793501,55134
75799756,55136
75805975,55136
75812827,55136
75818419,55143
75824644,55144
75830845,55141
75837040,55142
75843223,55138
75848479,55133
75854671,55131
75860872,55147
75872570,55150
75878805,55156
75885032,55157
75891228,55162
75897411,55159
75903627,55166
75909850,55166
75916045,55162
75922225,55161
75928452,55170
75934649,55168
75940889,55170
75947085,55173
75952304,55164
75958470,55172
75964679,55172
75970907,55167
75977097,55165
75982568,55165
75988767,55172
75994986,55177
76006357,55194
76012551,55200
76018773,55197
76025628,55198
76031854,55193
76038065,55205
76044256,55210
76050460,55206
76056695,55213
76062118,55205
76068372,55213
76074553,55209
76080762,55213
76086965,55216
76093162,55206
76099373,55212
76105557,55209
76111778,55206
76116988,55205
76123226,55215
76129438,55215
76141117,55233
76147304,55222
76153494,55238
76159713,55233
76165923,55229
76172114,55223
76178295,55228
76184537,55237
76190798,55232
76195999,55227
76202207,55234
76208448,55233
76214649,55232
76220852,55238
76227004,55239
76233795,55241
76239983,55242
76246194,55237
76251637,55241
76257849,55234
76264077,55237
76275480,55197
76281618,55202
76287819,55198
76293985,55203
76300221,55198
76306395,55199
76312576,55194
76318779,55199
76324927,55201
76330388,55195
76336582,55194
76342808,55198
76349039,55199
76355223,55196
76361419,55195
76367596,55199
76373814,55193
76380023,55197
76385213,55199
76391411,55192
76397603,55197
76403811,55198
76409977,55196
76416213,55192
76422386,55192
76428574,55186
76434763,55195
76440946,55189
76447787,55199
76454026,55200
76460254,55188
76465770,55191
76471953,55189
76478114,55191
76484303,55190
76490488,55186
76496677,55187
76501873,55190
76508021,55187
76514179,55186
76519646,55196
76525885,55191
76532109,55188
76538302,55193
76549703,55194
76555886,55201
76562069,55189
76568246,55193
76574438,55189
76580632,55195
76586830,55196
76593107,55199
76599342,55198
76605514,55191
76611716,55200
76617883,55196
76624104,55195
76630322,55202
76635763,55208
76641963,55206
76648143,55192
76654380,55198
76661205,55203
76667420,55203
76673609,55205
76685104,55229
76698144,55225
76704362,55224
76710662,55223
76716905,55221
76723132,55228
76729351,55213
76734553,55225
76740783,55224
76746966,55221
76753215,55225
76759458,55221
76764947,55226
76771130,55227
76777319,55229
76783534,55225
76788779,55234
76794940,55225
76801151,55225
76807313,55231
76813510,55242
76819726,55248
76825913,55249
76832139,55243
76838337,55247
76844543,55246
76850763,55248
76856965,55241
76863202,55249
76868671,55247
76875518,55240
76881737,55252
76887940,55256
76894095,55255
76899304,55254
76905506,55257
76911723,55251
76917908,55256
76923312,55249
76929530,55252
76935696,55257
76941901,55262
76953311,55293
76959496,55287
76965682,55289
76971815,55286
76978023,55286
76984243,55293
76990446,55295
76996613,55289
77002822,55289
77009009,55285
77015222,55295
77021425,55286
77027580,55292
77033817,55284
77039991,55295
77046211,55289
77052391,55288
77057807,55289
77064035,55292
77070203,55280
77076369,55286
77088669,55278
77094919,55274
77101097,55272
77107278,55266
77113485,55260
77119686,55273
77125890,55261
77132085,55267
77138234,55266
77143477,55265
77149664,55263
77155842,55266
77162034,55262
77168272,55264
77173755,55263
77179940,55270
77186149,55264
77191372,55258
77197567,55260
77203808,55254
77209980,55265
77216194,55259
77222322,55247
77228561,55239
77234746,55243
77240902,55242
77247123,55249
77253262,55246
77259459,55242
77265621,55249
77271847,55236
77277309,55250
77283544,55235
77289785,55238
77296655,55232
77302871,55235
77308072,55241
77314283,55247
77320497,55236
77325922,55240
77332132,55242
77338360,55241
77344586,55237
77350776,55243
77362205,55227
77368418,55230
77374605,55229
77380779,55231
77386946,55225
77393145,55231
77399322,55244
77405516,55236
77411749,55231
77417930,55226
77424097,55232
77430281,55230
77436469,55233
77442709,55231
77448900,55229
77455076,55231
77460541,55239
77466797,55237
77473034,55235
77479236,55234
77485430,55234
77496805,55253
77502958,55253
77509802,55257
77515978,55256
77522195,55252
77528406,55256
77534548,55256
77540778,55247
77546975,55258
77552458,55254
77558668,55260
77564880,55261
77571053,55258
77577228,55266
77582460,55260
77588652,55260
77594815,55264
77601034,55253
77607235,55271
77613401,55265
77619679,55266
77631252,55279
77637452,55274
77643603,55275
77649782,55277
77655964,55279
77662135,55272
77668393,55277
77674559,55281
77680786,55278
77686023,55276
77692202,55279
77698365,55279
77704563,55281
77710747,55284
77717483,55283
77723719,55277
77729932,55283
77735371,55285
77741565,55285
77747774,55287
77753979,55286
77760154,55279
77766357,55302
77772516,55301
77778747,55311
77784972,55312
77791190,55317
77797454,55309
77803657,55310
77809876,55319
77816099,55316
77821280,55319
77827491,55318
77833624,55316
77839816,55314
77845957,55313
77852156,55322
77857583,55316
77863788,55314
77869018,55321
77875234,55307
77881435,55326
77887599,55317
77893818,55327
77905450,55310
77911666,55304
77917854,55306
77924054,55307
77930934,55303
77943754,55307
77950011,55303
77956275,55305
77962486,55308
77968701,55299
77974876,55304
77981060,55296
77986530,55301
77992761,55297
77997976,55304
78004211,55301
78010442,55297
78016705,55282
78022942,55292
78029150,55297
78035281,55287
78041480,55286
78047623,55286
78053793,55283
78059952,55286
78066161,55285
78072368,55285
78078641,55279
78084851,55283
78090321,55283
78096495,55281
78102720,55284
78108871,55284
78115048,55283
78120248,55278
78126422,55271
78132593,55273
78138815,55278
78145696,55278
78151920,55270
78158153,55268
78164377,55270
78176041,55273
78182208,55265
78188439,55268
78194585,55264
78200811,55268
78207011,55267
78213195,55269
78219350,55263
78224539,55271
78230721,55269
78236906,55264
78243103,55266
78249329,55261
78254771,55268
78260983,55260
78267149,55276
78272363,55265
78278570,55264
78284794,55264
78291008,55273
78297242,55269
78303474,55264
78309652,55277
78315827,55277
78321990,55273
78328200,55278
78334418,55277
78340625,55275
78346845,55272
78353036,55282
78359216,55281
78365430,55271
78371611,55283
78377799,55281
78383976,55274
78389459,55279
78395658,55278
78401863,55279
78407128,55278
78413303,55280
78419533,55288
78425736,55287
78431927,55276
78438128,55286
78449759,55282
78455937,55287
78462146,55275
78468357,55284
78474531,55283
78480777,55274
78486948,55284
78493158,55279
78499363,55280
78505546,55288
78511782,55280
78517986,55284
78524146,55285
78530322,55291
78536503,55288
78541716,55285
78547903,55289
78554124,55296
78560368,55299
78567188,55293
78573437,55296
78585062,55316
78591249,55304
78597441,55306
78603677,55315
78609911,55319
78616104,55310
78622281,55318
78628469,55311
78633698,55318
78639869,55312
78646025,55320
78652258,55316
78658432,55313
78663857,55313
78670096,55315
78675288,55318
78681473,55318
78687655,55310
78693855,55311
78700067,55319
78706301,55320
78717947,55293
78724135,55297
78730341,55289
78736562,55285
78742794,55291
78749011,55284
78755187,55283
78761386,55277
78767565,55282
78773802,55281
78780714,55279
78786924,55276
78793107,55275
78798285,55273
78804470,55279
78809967,55276
78816138,55320
78822319,55268
78828483,55269
78834679,55271
78840898,55269
78852307,55252
78858478,55256
78864664,55261
78870849,55267
78877093,55246
78883348,55252
78889572,55251
78895780,55257
78901940,55244
78907345,55250
78913515,55242
78919727,55241
78925918,55251
78932102,55249
78937310,55250
78943506,55246
78949702,55247
78955876,55241
78962092,55245
78968306,55241
78974490,55247
78980708,55249
78986911,55229
78993750,55230
78999966,55227
79006226,55243
79012422,55234
79018610,55232
79024786,55232
79030981,55231
79037190,55243
79042603,55233
79048843,55239
79055053,55224
79061234,55230
79067393,55225
79073574,55234
79079805,55240
79085019,55227
79091228,55232
79097438,55225
79103634,55220
79109781,55222
79115927,55228
79127557,55221
79133772,55230
79139976,55225
79146197,55217
79152433,55225
79158614,55230
79164880,55223
79171127,55233
79176370,55235
79182565,55227
79195656,55232
79201946,55224
79208826,55233
79214059,55240
79220298,55236
79226521,55236
79232769,55226
79239007,55230
79245207,55236
79256885,55242
79263119,55244
79269322,55233
79275532,55241
79281773,55234
79288006,55246
79294233,55238
79300490,55234
79305740,55235
79311953,55248
79318163,55242
79324370,55244
79330589,55244
79336826,55239
79342352,55248
79347591,55246
79353825,55240
79360055,55247
79366362,55241
79372582,55250
79378851,55243
79390536,55262
79396773,55270
79402977,55267
79409210,55273
79415450,55272
79422368,55270
79428628,55272
79434880,55277
79440140,55268
79446349,55260
79452554,55264
79458740,55264
79464960,55266
79471149,55269
79476636,55275
79481898,55271
79488136,55270
79494352,55279
79500575,55276
79506830,55268
79513043,55271
79519275,55272
79525498,55234
79531762,55232
79537997,55234
79544215,55228
79550414,55231
79556592,55226
79562828,55228
79569081,55226
79574595,55222
79580861,55224
79587086,55218
79593290,55224
79599566,55222
79605771,55224
79610977,55214
79616479,55215
79622702,55219
79628909,55221
79635800,55218
79642020,55223
79648151,55214
79654375,55215
79665791,55206
79671970,55213
79678141,55208
79684393,55205
79690569,55200
79696790,55201
79703003,55202
79709220,55200
79715395,55197
79721536,55203
79727761,55201
79733930,55196
79740132,55196
79745566,55192
79750796,55198
79756984,55199
79763200,55203
79769356,55193
79775558,55197
79781762,55201
79787950,55192
79799542,55179
79805724,55179
79811935,55183
79818152,55183
79824370,55178
79830588,55189
79836809,55175
79842990,55180
79849140,55178
79855295,55185
79861501,55183
79867737,55185
79873921,55177
79880124,55175
79885356,55179
79891554,55183
79897772,55181
79903954,55183
79910189,55182
79916412,55184
79922599,55175
79934244,55195
79940413,55198
79946632,55192
79952841,55197
79959075,55192
79965274,55198
79971503,55196
79977695,55194
79982900,55196
79989107,55204
79995304,55198
80001497,55196
80007645,55194
80013855,55200
80019330,55206
80025507,55200
80031718,55200
80037923,55193
80044116,55202
80050315,55195
80057155,55201
80068518,55220
80074655,55220
80080865,55215
80087054,55224
80093270,55214
80099493,55224
80105689,55213
80111881,55218
80117341,55219
80123538,55218
80129746,55230
80135903,55219
80142094,55219
80148275,55225
80153508,55216
80158991,55227
80165233,55225
80171438,55223
80177619,55221
80183843,55217
80190036,55225
80196174,55221
80207561,55239
80213731,55242
80219949,55230
80226153,55233
80232329,55233
80238517,55234
80244727,55240
80250886,55227
80256342,55232
80262571,55231
80269413,55228
80275555,55232
80281803,55218
80287977,55228
80293183,55227
80299417,55226
80305627,55225
80311800,55220
80317953,55218
80324122,55212
80330316,55214
80341959,55167
80348169,55157
80354417,55161
80360613,55160
80366820,55155
80372999,55151
80379207,55161
80385404,55152
80390564,55158
80396760,55160
80402947,55153
80409174,55155
80415382,55149
80421598,55152
80427794,55152
80440594,55158
80446825,55150
80453095,55151
80459290,55145
80470929,55140
80477141,55144
80483354,55140
80490124,55135
80496284,55136
80502504,55138
80508734,55132
80514949,55124
80520133,55135
80526324,55132
80532530,55134
80538737,55133
80544934,55141
80551115,55137
80557318,55129
80562820,55133
80569031,55135
80575186,55126
80581382,55141
80587559,55130
80593778,55135
80605216,55144
80611412,55140
80617607,55136
80623794,55137
80630011,55137
80636237,55141
80642433,55144
80648605,55139
80654068,55146
80660292,55138
80666468,55138
80672671,55146
80678891,55135
80685092,55149
80691312,55141
80697503,55151
80702717,55145
80708935,55147
80715140,55145
80721311,55145
80727465,55140
80739064,55165
80745244,55158
80751426,55161
80757593,55169
80763831,55165
80770053,55171
80776240,55164
80782447,55163
80787642,55171
80793824,55169
80799990,55166
80806206,55167
80812410,55171
80818592,55169
80824808,55166
80830283,55170
80836542,55174
80842819,55172
80849015,55171
80855214,55180
80861381,55171
80867563,55166
80873769,55204
80879955,55201
80886164,55201
80892379,55200
80898592,55201
80904838,55203
80911723,55202
80917941,55206
80923463,55198
80929596,55197
80935821,55203
80942007,55195
80948163,55201
80954344,55201
80960550,55185
80965799,55193
80971976,55188
80977465,55195
80983641,55185
80989836,55192
80996026,55199
81007398,55167
81013596,55165
81019819,55164
81026033,55166
81032258,55158
81038504,55165
81044659,55156
81050842,55155
81056992,55157
81063164,55151
81069368,55147
81075513,55152
81081690,55149
81087861,55149
81094011,55145
81099498,55152
81105718,55150
81110916,55147
81117700,55147
81123964,55138
81130166,55131
81136364,55134
81142561,55106
81148788,55115
81154966,55106
81161207,55108
81167447,55110
81173623,55104
81179821,55096
81186027,55106
81192256,55100
81197722,55111
81203884,55112
81210104,55102
81216294,55105
81222516,55108
81228752,55112
81233967,55096
81240231,55111
81245681,55107
81251909,55097
81258116,55108
81264281,55106
81270512,55109
81281924,55101
81288119,55100
81294326,55090
81300509,55102
81306713,55090
81312890,55094
81319130,55101
81325328,55101
81331501,55100
81337677,55102
81343865,55103
81350029,55096
81356232,55105
81362453,55102
81367891,55096
81374095,55102
81380304,55106
81386514,55106
81392703,55100
81398888,55109
81405101,55106
81416461,55115
81422645,55121
81428844,55122
81435020,55118
81441235,55120
81447434,55117
81453610,55122
81459809,55126
81465257,55123
81471479,55127
81477688,55132
81483877,55127
81490013,55125
81496241,55119
81502473,55122
81508672,55120
81514877,55129
81520082,55130
81526351,55128
81532547,55126
81539278,55130
81551054,55141
81557275,55143
81563500,55141
81569767,55141
81575966,55134
81582226,55143
81588468,55150
81594694,55145
81599905,55147
81606130,55149
81612347,55152
81618561,55146
81624826,55134
81631067,55144
81637327,55141
81642815,55143
81649042,55140
81654236,55147
81660469,55143
81666646,55140
81672900,55140
81679113,55142
81691946,55080
81698210,55087
81704476,55083
81710738,55078
81717001,55080
81723250,55064
81729510,55067
81735761,55070
81741999,55064
81748240,55068
81754306,55067
81761178,55070
81767406,55058
81772981,55063
81779184,55056
81784675,55061
81790925,55061
81797129,55055
81803345,55055
81809588,55049
81821039,55041
81827286,55032
81833527,55025
81839770,55026
81846003,55022
81852192,55026
81858470,55023
81864720,55019
81870121,55027
81876285,55033
81882478,55027
81888722,55037
81894889,55029
81901082,55026
81906291,55028
81912520,55030
81917959,55030
81924162,55023
81930393,55027
81936594,55018
81942807,55030
81948944,55026
81955162,55021
81961384,55018
81967604,55026
81974454,55027
81980676,55017
81986883,55021
81993126,55021
81999331,55015
82004559,55024
82010734,55018
82016972,55029
82023180,55030
82029388,55023
82035585,55029
82041068,55022
82047232,55027
82052501,55027
82058677,55023
82064858,55035
82071028,55029
82077247,55039
82083416,55027
82089611,55052
82095788,55057
82102000,55051
82108232,55049
82114448,55052
82120608,55057
82126791,55048
82132973,55057
82138411,55054
82144599,55051
82150798,55053
82157010,55049
82163191,55052
82169377,55053
82174578,55062
82181298,55052
82187537,55069
82193730,55057
82199896,55057
82206121,55059
82212355,55055
82218559,55063
82230223,55073
82236389,55079
82242567,55080
82248814,55082
82255015,55090
82261148,55082
82267329,55092
82272564,55091
82278741,55087
82284952,55087
82291165,55092
82297337,55092
82303522,55097
82308976,55094
82315201,55097
82321388,55100
82327573,55092
82333782,55089
82339975,55094
82346167,55095
82352359,55096
82363744,55068
82369931,55065
82376148,55058
82382335,55067
82388553,55065
82395346,55063
82401531,55057
82407009,55055
82413180,55048
82419330,55053
82425538,55049
82431760,55045
82437957,55042
82443176,55049
82449350,55042
82455558,55049
82461751,55044
82467937,55052
82474173,55037
82480357,55038
82486571,55039
82498269,55009
82504486,55008
82510703,55005
82516955,55004
82523183,55008
82529449,55007
82535723,55010
82541927,55003
82548120,55011
82554333,55009
82560572,55008
82566808,55010
82573022,55002
82578274,55011
82584481,55018
82590763,55006
82596270,55005
82602525,55009
82609418,55004
82615636,55003
82621834,55005
82633282,55010
82639439,55000
82645615,55000
82651798,54999
82658003,54998
82664227,55001
82670442,55004
82676621,55008
82682134,55005
82688315,55003
82694482,55004
82700688,55004
82706927,55000
82712156,55011
82718403,55004
82724639,55008
82730887,55004
82737097,55002
82743335,55011
82749556,55006
82755755,55016
82767455,55029
82773721,55027
82779955,55037
82786185,55022
82792453,55038
82798699,55031
82804920,55027
82811126,55025
82816965,55033
82823234,55026
82829449,55034
82835726,55038
82842001,55030
82847515,55038
82853759,55037
82859980,55033
82865540,55036
82871775,55037
82877948,55029
82884085,55037
82890290,55032
82901739,55057
82907989,55055
82914237,55056
82920449,55059
82926654,55057
82939760,55052
82945296,55056
82951555,55066
82957764,55057
82964009,55064
82970251,55061
82975497,55058
82981770,55065
82988030,55076
82994275,55065
83000467,55059
83006736,55065
83012990,55067
83019208,55065
83025430,55058
83031630,55091
83038502,55086
83044799,55085
83051023,55099
83057281,55095
83063502,55093
83069769,55093
83076018,55091
83081524,55097
83087738,55089
83093949,55101
83100168,55093
83106415,55092
83111663,55103
83117937,55099
83124188,55109
83130453,55099
83135938,55105
83142184,55104
83148427,55086
83154614,55103
83166066,55066
83172287,55062
83178486,55062
83184751,55052
83191004,55059
83197254,55058
83203478,55059
83209703,55043
83215175,55046
83221426,55043
83227664,55044
83233873,55038
83240116,55029
83245380,55030
83252244,55026
83258453,55030
83264708,55023
83270134,55021
83276343,55027
83282534,55025
83288779,55021
83300186,54995
83306394,55005
83312556,54996
83318762,55006
83324967,54999
83331247,55005
83337490,54995
83343795,55003
83349274,55000
83355500,54998
83361720,55001
83367916,55006
83374115,54998
83379361,55002
83385630,54999
83391842,55000
83398092,54998
83403621,55001
83409869,54997
83416097,54997
83422339,55004
83428595,54997
83434840,54998
83441076,55001
83447334,55001
83453594,55002
83459872,54998
83466758,54998
83473000,54992
83479176,54998
83484408,55005
83490645,54996
83496890,54998
83503116,54998
83509364,54998
83514919,54999
83521174,54994
83527393,54998
83533663,54995
83539152,54997
83545390,55001
83551641,55002
83557875,54993
83564069,55006
83575527,55025
83581735,55020
83587970,55022
83594185,55022
83600421,55016
83606632,55026
83612873,55021
83618284,55012
83624544,55020
83630785,55023
83637005,55015
83643199,55020
83648444,55020
83654662,55022
83660892,55030
83667141,55023
83672599,55031
83679439,55025
83685672,55025
83691904,55026
83698116,55027
83709804,55037
83716038,55039
83722295,55040
83728536,55045
83734766,55034
83740968,55046
83747182,55032
83752420,55033
83758640,55041
83764877,55046
83771061,55040
83777240,55045
83782722,55031
83788932,55045
83795168,55039
83801433,55042
83806675,55034
83812884,55031
83819140,55046
83825344,55045
83831549,55048
83837737,55052
83843924,55066
83850160,55071
83856376,55064
83862579,55074
83868843,55068
83875107,55072
83881348,55067
83887381,55069
83893621,55073
83899878,55066
83906130,55065
83912335,55071
83917818,55070
83924024,55077
83930300,55079
83936524,55080
83941737,55075
83947957,55076
83954169,55086
83960370,55092
83966601,55087
83978320,55098
83984537,55092
83990772,55087
83997018,55089
84003232,55073
84009484,55078
84015724,55081
84021900,55076
84028107,55075
84034356,55081
84040609,55074
84046822,55072
84052013,55065
84058247,55061
84064464,55068
84070662,55063
84076183,55058
84082400,55056
84088605,55057
84094840,55055
84101741,55055
84113185,55028
84119388,55012
84125593,55019
84131852,55018
84138084,55047
84144345,55025
84150597,55025
84156781,55019
84162251,55026
84168491,55027
84174730,55025
84180965,55020
84192795,55018
84199052,55028
84205391,55030
84211665,55024
84217936,55023
84224214,55026
84230428,55028
84242137,55021
84248358,55022
84254591,55018
84260871,55023
84267094,55022
84273298,55027
84279547,55020
84285825,55022
84291063,55026
84297296,55023
84303506,55022
84309682,55021
84315205,55031
84322063,55024
84328271,55020
84334452,55018
84340713,55025
84345928,55026
84352136,55021
84358391,55026
84364597,55021
84370884,55029
84377142,55045
84383384,55040
84389598,55035
84395858,55034
84402075,55041
84408333,55037
84414541,55042
84420800,55052
84426284,55047
84432530,55052
84438764,55052
84444985,55048
84450216,55038
84456416,55050
84462662,55051
84468944,55051
84475192,55049
84480672,55056
84486917,55041
84493176,55057
84499414,55060
84510851,55072
84517022,55079
84523243,55069
84530101,55080
84536428,55084
84542608,55079
84548880,55084
84555109,55082
84560616,55085
84566884,55075
84573084,55084
84579254,55092
84584490,55083
84590702,55085
84596949,55090
84603177,55083
84609389,55086
84614877,55094
84621099,55090
84627252,55098
84633488,55091
84639735,55095
84645955,55126
84652200,55124
84658423,55127
84664610,55119
84670862,55129
84677092,55126
84683330,55122
84689595,55123
84694850,55118
84701064,55133
84707288,55124
84713497,55121
84718937,55123
84725112,55122
84731355,55127
84737593,55136
84744463,55137
84749715,55130
84755987,55137
84762193,55141
84768412,55138
84774597,55143
84786286,55159
84792491,55164
84798744,55153
84804957,55170
84811184,55166
84817469,55167
84823711,55161
84828981,55157
84835211,55163
84841440,55159
84847652,55160
84853152,55161
84859387,55161
84865634,55161
84871827,55163
84878039,55166
84883278,55164
84889497,55167
84895764,55165
84901985,55160
84908208,55172
84919944,55123
84926135,55124
84932376,55120
84938612,55129
84944844,55130
84951078,55125
84957965,55125
84963204,55123
84969430,55125
84975637,55122
84981880,55123
84987336,55124
84993594,55123
84999852,55119
85006069,55119
85012320,55118
85017590,55123
85023820,55117
85030042,55114
85036273,55116
85042460,55114
85048736,55116
85054971,55111
85061194,55100
85067423,55112
85073656,55106
85079890,55107
85086089,55097
85092350,55097
85097838,55100
85104079,55102
85110315,55109
85116559,55102
85122770,55100
85128956,55100
85135197,55104
85141424,55106
85147674,55105
85152928,55106
85159216,55107
85165451,55098
85172352,55105
85178563,55101
85184792,55106
85191029,55101
85197281,55109
85203508,55111
85209750,55113
85215981,55118
85222180,55124
85228431,55129
85233954,55118
85240172,55122
85246451,55123
85251682,55126
85257881,55122
85264102,55127
85270342,55123
85276569,55121
85282819,55120
85288313,55126
85294559,55126
85300834,55127
85307025,55132
85313270,55121
85319539,55131
85330970,55158
85337204,55160
85343393,55155
85349627,55153
85355839,55162
85362111,55158
85367614,55152
85373852,55151
85380067,55163
85385977,55159
85392179,55161
85398399,55157
85404652,55161
85410920,55157
85417193,55163
85422650,55163
85428897,55163
85435137,55169
85448013,55173
85454266,55169
85460511,55197
85466743,55196
85472966,55193
85479175,55195
85485459,55191
85491718,55200
85496977,55198
85503219,55195
85509498,55194
85514965,55198
85521200,55196
85527402,55198
85533627,55199
85539869,55205
85546081,55201
85551326,55195
85557520,55204
85563806,55201
85570041,55206
85576290,55211
85582526,55201
85588758,55207
85600456,55232
85607376,55238
85613651,55242
85619888,55237
85626138,55236
85631348,55237
85637572,55242
85643779,55236
85649278,55243
85655476,55241
85661684,55249
85667894,55242
85674070,55251
85680244,55242
85685486,55245
85691682,55250
85697901,55246
85704097,55250
85710284,55256
85716473,55255
85722730,55255
85728973,55254
85735193,55270
85741414,55262
85747664,55261
85753952,55267
85760175,55262
85765667,55260
85771883,55264
85778091,55258
85783330,55257
85789563,55253
85795801,55263
85802012,55257
85808190,55245
85815029,55258
85820595,55245
85826860,55249
85833073,55249
85839277,55250
85845528,55253
85851767,55246
85858015,55249
85869498,55240
85875737,55240
85881973,55242
85888212,55244
85894456,55235
85899991,55242
85906177,55244
85912439,55235
85917678,55238
85923883,55244
85930086,55247
85936281,55239
85942436,55241
85948621,55236
85954900,55242
85961133,55238
85967365,55240
85973609,55243
85979873,55246
85986113,55232
85992319,55239
86003975,55245
86010213,55248
86016459,55239
86022654,55246
86029507,55245
86034696,55239
86040925,55246
86047176,55245
86052634,55242
86058865,55252
86065075,55236
86071257,55250
86077457,55245
86083688,55242
86088911,55250
86095135,55245
86101364,55245
86107601,55244
86113870,55254
86120133,55253
86126370,55252
86132576,55258
86138818,55269
86145065,55273
86151311,55272
86157573,55274
86163802,55290
86169280,55280
86175519,55278
86181770,55279
86186990,55279
86193217,55275
86199398,55278
86205643,55278
86211917,55287
86218074,55280
86223557,55284
86229768,55270
86235990,55292
86242878,55292
86249041,55293
86255236,55286
86261498,55285
86267720,55282
86279113,55308
86285349,55307
86291570,55300
86297838,55309
86303345,55314
86309585,55310
86315836,55310
86321070,55319
86327306,55317
86333512,55322
86339794,55316
86346025,55319
86352249,55322
86358482,55328
86364750,55322
86370976,55326
86377220,55323
86383405,55320
86389626,55326
86395865,55329
86402103,55327
86413848,55357
86420064,55355
86426320,55357
86432548,55350
86437725,55352
86443982,55352
86450192,55355
86456410,55351
86462602,55353
86468854,55356
86475064,55353
86481263,55360
86487498,55357
86493752,55360
86499270,55364
86505501,55357
86511773,55363
86517999,55371
86524198,55366
86530430,55367
86536684,55366
86548136,55393
86554341,55395
86560568,55395
86566838,55393
86572339,55389
86578588,55398
86584809,55395
86590048,55400
86596282,55394
86602506,55399
86608701,55405
86614930,55399
86621136,55383
86627364,55387
86632887,55392
86639082,55403
86645300,55400
86651564,55400
86657782,55393
86663999,55388
86670914,55394
86682340,55378
86688582,55380
86701668,55383
86707971,55381
86714285,55373
86719532,55381
86725824,55379
86732033,55371
86738265,55379
86744505,55373
86750758,55373
86756952,55376
86762473,55368
86768742,55367
86774989,55377
86781209,55372
86787457,55367
86793678,55366
86799889,55376
86811320,55375
86817518,55381
86823748,55379
86829997,55379
86836225,55375
86841751,55379
86847949,55381
86853184,55377
86859427,55384
86865619,55376
86871893,55371
86878102,55372
86884929,55384
86891174,55380
86896675,55367
86902903,55375
86909131,55377
86915360,55381
86921638,55370
86927892,55375
86934119,55382
86945580,55381
86951818,55387
86957990,55375
86964231,55385
86970433,55387
86975958,55379
86982175,55391
86987369,55381
86993590,55387
86999835,55386
87006022,55391
87012253,55386
87018429,55387
87024617,55385
87030919,55376
87037142,55385
87043393,55389
87049609,55385
87055847,55389
87062073,55391
87068306,55397
87074494,55395
87080705,55392
87086928,55405
87093129,55397
87100069,55404
87106307,55403
87111803,55399
87118028,55402
87123274,55407
87129480,55401
87135704,55397
87141895,55396
87148100,55406
87154331,55403
87160557,55398
87166791,55398
87172313,55399
87178569,55401
87184814,55395
87191043,55395
87197279,55398
87203518,55407
87214981,55411
87221221,55407
87227441,55420
87233695,55411
87239920,55417
87245414,55423
87251716,55412
87256962,55425
87263217,55420
87269447,55417
87275655,55422
87281895,55423
87288143,55421
87294371,55422
87300610,55412
87306127,55431
87313043,55419
87319286,55425
87325483,55432
87331706,55423
87337931,55430
87349361,55454
87355564,55451
87361756,55445
87368019,55453
87374250,55451
87379751,55453
87385957,55451
87391174,55456
87397362,55454
87403587,55454
87409810,55453
87416029,55456
87422174,55456
87428387,55455
87434587,55454
87440098,55452
87446355,55443
87452588,55461
87458792,55449
87465076,55451
87471285,55456
87477516,55458
87483765,55441
87490015,55442
87496230,55441
87502503,55434
87508744,55453
87513982,55443
87520211,55443
87526388,55443
87532649,55438
87538894,55444
87545128,55442
87551334,55440
87557523,55439
87563694,55443
87569975,55448
87575491,55438
87581739,55446
87587969,55444
87594202,55448
87600466,55446
87606705,55444
87612920,55448
87624367,55450
87630579,55445
87636853,55440
87643117,55447
87648589,55446
87654813,55447
87660062,55447
87666331,55443
87672544,55439
87678756,55441
87685027,55444
87691233,55442
87697429,55451
87703660,55445
87709136,55442
87715407,55449
87721687,55440
87727935,55447
87734082,55443
87740861,55449
87747039,55444
87758477,55452
87764710,55455
87770953,55450
87777120,55449
87783365,55455
87789560,55458
87795043,55452
87801290,55454
87807526,55463
87813760,55454
87819986,55470
87826192,55457
87832398,55456
87838638,55459
87843853,55462
87850068,55460
87856292,55455
87862532,55463
87868774,55458
87875031,55458
87881259,55464
87892879,55471
87899100,55473
87905358,55484
87911635,55476
87917885,55468
87923110,55470
87928577,55473
87934814,55469
87940999,55474
87953819,55471
87960661,55477
87966945,55479
87973141,55473
87979339,55484
87985559,55475
87991802,55474
87998004,55471
88004217,55476
88010407,55473
88021804,55498
88027999,55495
88034212,55498
88040383,55512
88046615,55499
88052090,55505
88058282,55504
88064489,55508
88070724,55507
88076971,55503
88083180,55496
88089377,55495
88095603,55504
88101850,55504
88108094,55506
88113281,55510
88119492,55504
88125778,55510
88132016,55503
88138214,55507
88144473,55513
88150717,55502
88156920,55495
88163143,55499
88170067,55496
88176297,55490
88182583,55499
88188047,55489
88193312,55487
88199497,55490
88205764,55484
88211987,55496
88218217,55486
88224389,55485
88230587,55488
88236832,55491
88243021,55487
88248520,55485
88254761,55494
88260975,55485
88267174,55480
88273373,55488
88279574,55484
88285778,55486
88297232,55474
88303439,55463
88309630,55466
88315885,55476
88321381,55466
88326646,55467
88332898,55472
88339107,55471
88345366,55463
88351560,55458
88357801,55464
88364040,55462
88370254,55471
88376432,55468
88382517,55463
88388809,55469
88395047,55460
88401277,55469
88407495,55459
88413664,55475
88419908,55466
88431360,55461
88437596,55469
88443814,55465
88450047,55459
88456281,55459
88461753,55462
88467988,55461
88474252,55461
88480502,55465
88486712,55454
88492949,55462
88499176,55463
88505344,55460
88511574,55465
88516810,55457
88523021,55462
88529218,55460
88535433,55468
88541666,55464
88547906,55459
88554116,55462
88565871,55486
88572097,55483
88578314,55479
88584559,55476
88590764,55485
88596684,55487
88602911,55483
88609181,55482
88615409,55483
88621643,55474
88627885,55485
88634137,55481
88640352,55483
88646546,55480
88652060,55486
88658231,55486
88664390,55475
88670576,55484
88676781,55485
88682982,55485
88689180,55484
88700572,55498
88706780,55488
88712961,55488
88719190,55498
88725368,55499
88730116,55499
88736276,55498
88742482,55501
88748672,55503
88754904,55494
88761092,55499
88767278,55501
88773519,55495
88779742,55498
88785001,55505
88791216,55503
88797403,55500
88804228,55505
88810466,55501
88816641,55504
88822844,55509
88834463,55517
88840627,55515
88846870,55508
88853067,55513
88859264,55509
88864485,55522
88870647,55506
88876833,55509
88883026,55506
88889241,55504
88895426,55512
88901591,55501
88907783,55513
88913948,55514
88919430,55503
88925586,55507
88931763,55509
88937991,55504
88944173,55497
88950354,55498
88956538,55496
88962695,55496
88968933,55440
88975135,55433
88981293,55446
88987489,55445
88993654,55454
88998869,55437
89004302,55435
89010485,55442
89017297,55433
89023526,55436
89029750,55433
89035887,55423
89042062,55434
89048276,55432
89054471,55434
89060634,55436
89066877,55432
89073027,55427
89079211,55426
89085376,55432
89091560,55432
89097742,55422
89109133,55409
89115331,55405
89121538,55408
89127751,55404
89133957,55401
89139414,55413
89145605,55404
89151843,55406
89158034,55404
89164254,55405
89170421,55401
89176629,55402
89182865,55390
89189084,55402
89194324,55395
89207344,55397
89213627,55387
89219882,55394
89226103,55399
89238203,55392
89244432,55397
89250633,55389
89256864,55387
89263077,55392
89267828,55387
89274037,55393
89280256,55385
89286451,55385
89292625,55386
89298843,55383
89305038,55394
89311210,55395
89317354,55390
89323546,55391
89329755,55385
89335985,55393
89342201,55397
89348401,55390
89354637,55400
89360859,55394
89367026,55395
89373234,55400
89379391,55394
89385569,55395
89391790,55401
89398029,55397
89402579,55398
89408811,55402
89415034,55405
89421251,55396
89427460,55402
89433656,55403
89439852,55400
89446622,55400
89452815,55405
89459023,55396
89464478,55399
89470645,55397
89476867,55395
89483065,55412
89489268,55402
89495452,55403
89501652,55407
89513109,55406
89519330,55412
89525523,55415
89531657,55414
89536335,55412
89542506,55417
89548721,55427
89554968,55421
89561154,55411
89567313,55420
89573475,55421
89579636,55418
89585867,55435
89592052,55421
89597285,55421
89603476,55417
89609676,55425
89615875,55427
89622049,55422
89628264,55417
89634443,55414
89640651,55422
89646832,55380
89653629,55369
89659802,55377
89665957,55370
89671392,55368
89677564,55370
89683810,55371
89689995,55358
89696164,55360
89702297,55361
89708493,55370
89714668,55359
89720879,55354
89727122,55356
89732335,55356
89738542,55339
89744712,55352
89750906,55343
89757084,55345
89763292,55347
89769526,55346
89775704,55347
89787322,55311
89793545,55305
89799715,55306
89804944,55301
89811128,55297
89817380,55294
89823589,55299
89829771,55291
89835949,55290
89842102,55298
89848313,55298
89854514,55291
89861292,55299
89866814,55295
89873008,55298
89879230,55294
89885424,55295
89891626,55290
89897853,55289
89904038,55284
89910234,55291
89921687,55267
89927879,55265
89934074,55268
89939532,55260
89945718,55259
89950909,55269
89957103,55264
89963321,55265
89969514,55263
89975700,55259
89981932,55262
89988153,55267
89994374,55258
90000626,55260
90006862,55266
90013060,55269
90019294,55267
90025467,55263
90031653,55270
90037828,55266
90044015,55271
90055680,55267
90061915,55267
90068108,55273
90074970,55268
90081195,55274
90086402,55275
90092582,55273
90098765,55268
90104916,55272
90111096,55275
90117343,55271
90123488,55271
90129689,55265
90135946,55270
90141351,55279
90147539,55279
90153762,55284
90159947,55278
90166153,55282
90172338,55275
90178519,55280
90189876,55293
90196065,55297
90202315,55284
90208555,55288
90214013,55291
90220206,55293
90226412,55299
90232587,55299
90238810,55287
90244998,55294
90251183,55299
90257384,55294
90263649,55293
90269915,55295
90275480,55295
90281719,55295
90288608,55287
90294818,55301
90301003,55294
90307182,55292
90313402,55296
90324890,55316
90331079,55322
90337329,55314
90343546,55311
90349035,55318
90355199,55322
90360403,55313
90366566,55319
90372805,55316
90379031,55314
90385240,55316
90391490,55312
90397702,55325
90403936,55317
90409444,55322
90415658,55321
90421919,55307
90428126,55318
90434374,55309
90440621,55308
90458927,55263
90465233,55256
90471452,55250
90477677,55248
90483927,55250
90489157,55259
90495372,55251
90502187,55247
90508444,55260
90514687,55243
90520929,55248
90527116,55248
90533371,55252
90538858,55245
90545083,55244
90551329,55247
90557536,55251
90563736,55234
90569905,55245
90576142,55245
90582395,55235
90588638,55206
90594887,55207
90601107,55210
90607305,55204
90612556,55212
90618813,55206
90624274,55200
90630533,55209
90636759,55208
90642936,55210
90649134,55201
90655302,55214
90661512,55207
90667693,55217
90673901,55208
90680110,55203
90686311,55202
90692515,55213
90698744,55207
90704956,55205
90711139,55201
90717995,55200
90729373,55191
90735586,55186
90741773,55197
90747226,55199
90753440,55188
90758654,55195
90764845,55194
90771001,55191
90777208,55196
90783433,55185
90789662,55196
90795856,55197
90802048,55196
90808270,55194
90813735,55194
90819953,55198
90826145,55197
90832363,55195
90838564,55200
90844781,55191
90850989,55203
90857189,55200
90863378,55223
90869595,55220
90875793,55229
90881007,55228
90887213,55227
90892670,55222
90898885,55223
90905083,55217
90911270,55217
90917479,55234
90923666,55219
90930532,55232
90936760,55233
90942939,55226
90948562,55232
90954823,55230
90960966,55232
90967204,55233
90973356,55227
90979604,55229
90985781,55223
90997215,55260
91003467,55256
91009657,55253
91015102,55261
91021318,55265
91027535,55256
91033762,55261
91039985,55247
91046179,55246
91052377,55252
91058569,55259
91064774,55257
91070999,55259
91077215,55263
91082423,55255
91088605,55260
91094792,55256
91101032,55264
91107225,55261
91113418,55259
91119624,55264
91125786,55271
91131973,55294
91138855,55292
91145046,55299
91150483,55292
91156715,55295
91162940,55287
91168150,55293
91174351,55289
91180577,55290
91186732,55288
91192935,55290
91199119,55290
91205350,55289
91211572,55283
91216999,55282
91223202,55282
91229419,55283
91235585,55273
91241775,55277
91247971,55272
91254187,55271
91260350,55274
91271805,55230
91278004,55244
91284234,55235
91290452,55241
91296635,55236
91302068,55244
91308255,55241
91314436,55236
91320598,55235
91326774,55236
91333016,55237
91339220,55228
91345353,55233
91351136,55237
91357340,55238
91363588,55240
91369799,55225
91376016,55240
91382204,55229
91388389,55236
91394552,55237
91406194,55239
91412370,55234
91418602,55225
91424827,55239
91431014,55238
91436227,55243
91442408,55234
91448600,55234
91454763,55233
91460963,55239
91467206,55240
91473405,55228
91479573,55234
91485727,55235
91491921,55230
91498096,55235
91504324,55232
91510530,55232
91516710,55237
91522905,55235
91529082,55228
91540815,55249
91547052,55255
91553266,55253
91559405,55249
91565636,55256
91570827,55250
91577021,55253
91583213,55250
91589426,55258
91595594,55254
91601827,55256
91608037,55265
91614259,55258
91620435,55265
91625919,55267
91632126,55264
91638333,55263
91644500,55269
91650697,55267
91656923,55272
91663115,55267
91669323,55264
91675487,55283
91681698,55287
91687903,55285
91699704,55291
91705920,55288
91712169,55284
91718420,55289
91724610,55294
91730769,55295
91736955,55290
91743135,55295
91749329,55292
91755526,55299
91761731,55294
91767945,55296
91774702,55300
91780948,55307
91787205,55304
91793390,55312
91799595,55303
91811302,55322
91817568,55321
91822763,55332
91828947,55322
91835133,55328
91840617,55308
91846809,55325
91852985,55315
91859184,55325
91865379,55320
91871594,55320
91877823,55328
91884015,55319
91890253,55314
91895517,55307
91901703,55303
91907890,55313
91914035,55314
91920206,55312
91926404,55312
91932573,55313
91944257,55293
91950507,55291
91955716,55296
91961949,55291
91968175,55288
91973663,55290
91979898,55289
91986083,55295
91992907,55291
91999098,55291
92005305,55293
92011551,55295
92017728,55295
92023948,55296
92029157,55292
92035376,55293
92041575,55304
92047778,55294
92053966,55302
92060121,55295
92066347,55298
92072573,55304
92078764,55301
92085002,55311
92090448,55315
92096629,55305
92102848,55308
92109025,55314
92115240,55305
92121414,55303
92127584,55300
92133754,55312
92139938,55303
92146137,55312
92152353,55299
92158598,55312
92163817,55314
92170044,55311
92176313,55308
92182539,55307
92188754,55307
92195004,55307
92201919,55308
92208169,55308
92219875,55319
92225087,55326
92231367,55320
92237610,55319
92243894,55321
92249304,55329
92255494,55321
92261707,55325
92267939,55325
92274167,55318
92280406,55321
92286676,55322
92292931,55329
92298128,55325
92304415,55320
92310652,55324
92316845,55320
92323049,55322
92329250,55324
92335410,55328
92341640,55319
92353352,55321
92359611,55317
92365856,55314
92372092,55314
92378350,55309
92383589,55315
92389851,55316
92396074,55316
92402336,55317
92408614,55319
92415483,55323
92421736,55319
92428002,55313
92433485,55314
92439711,55319
92445927,55318
92452152,55318
92458395,55318
92464648,55306
92470909,55313
92477166,55317
92488673,55293
92494203,55289
92500469,55289
92506704,55288
92512950,55280
92518189,55290
92524410,55281
92530626,55277
92536880,55274
92543092,55275
92549309,55272
92555517,55271
92561726,55271
92567186,55273
92573411,55264
92579629,55267
92585831,55263
92592046,55263
92598263,55255
92604504,55261
92610734,55261
92622215,55234
92628383,55230
92634617,55227
92640831,55226
92647079,55228
92652573,55233
92658822,55232
92665017,55234
92671232,55229
92677464,55227
92683699,55230
92689930,55231
92696164,55231
92702394,55235
92708645,55227
92714884,55235
92721079,55225
92727319,55237
92733580,55233
92739797,55224
92746024,55225
92757503,55223
92763073,55213
92769301,55218
92775559,55209
92781848,55212
92787359,55223
92793582,55219
92799815,55217
92806000,55220
92812255,55223
92818495,55223
92824725,55219
92830980,55219
92836161,55222
92843030,55219
92849242,55228
92855437,55223
92861630,55219
92867882,55224
92874085,55230
92880303,55227
92891960,55237
92897210,55236
92903454,55238
92909686,55241
92915934,55245
92921406,55241
92927640,55239
92933850,55239
92940070,55243
92952897,55239
92959097,55242
92965407,55242
92970602,55245
92976812,55253
92983019,55246
92989259,55245
92995477,55243
93001719,55254
93007974,55244
93014234,55244
93020517,55287
93026016,55277
93032175,55283
93038514,55276
93044771,55282
93050024,55284
93056865,55287
93063115,55291
93069351,55294
93075544,55290
93081732,55290
93088000,55288
93094210,55286
93100450,55298
93106683,55299
93112948,55294
93119144,55298
93125358,55294
93131551,55302
93137733,55302
93143979,55304
93150158,55314
93160971,55316
93167171,55310
93173402,55319
93179628,55316
93185145,55310
93191314,55300
93197463,55304
93203648,55299
93209865,55296
93216047,55296
93222262,55295
93228504,55298
93234725,55296
93239956,55288
93246165,55289
93252412,55285
93258611,55288
93264759,55278
93271555,55275
93277752,55281
93283939,55265
93294576,55254
93300815,55261
93307018,55257
93313247,55255
93319414,55252
93325612,55267
93331753,55262
93337923,55259
93344089,55258
93350287,55255
93356491,55270
93362704,55258
93368909,55259
93374328,55259
93380510,55254
93386714,55252
93392914,55252
93399110,55259
93405309,55259
93411491,55248
93417701,55252
93423898,55250
93429097,55247
93435338,55247
93441547,55251
93447724,55246
93453920,55244
93460108,55243
93466337,55240
93472567,55240
93479344,55240
93485587,55244
93491774,55237
93497968,55244
93504144,55244
93509603,55244
93515806,55239
93522029,55243
93528219,55238
93534426,55246
93540629,55241
93546814,55236
93552986,55233
93559203,55243
93569965,55219
93576210,55229
93582387,55220
93588605,55222
93594057,55219
93600248,55221
93606406,55222
93612593,55216
93618797,55210
93624997,55205
93631211,55209
93637403,55204
93643611,55199
93649837,55204
93656007,55204
93662207,55205
93668405,55195
93674623,55198
93680838,55205
93687081,55203
93693947,55200
93704708,55150
93710913,55139
93717130,55145
93723335,55133
93728799,55153
93735004,55137
93741181,55143
93747355,55138
93753565,55137
93759804,55139
93765984,55143
93772193,55148
93778369,55143
93783588,55151
93789845,55136
93796021,55143
93802215,55137
93808416,55141
93814612,55138
93820817,55135
93827014,55137
93832462,55144
93838637,55180
93844838,55182
93851040,55185
93857240,55188
93862448,55187
93868673,55185
93874883,55193
93881053,55191
93887254,55198
93893450,55190
93900260,55189
93906412,55196
93912634,55200
93918094,55187
93924281,55194
93930477,55202
93936701,55193
93942901,55196
93949115,55197
93955333,55196
93961577,55188
93966807,55194
93973046,55172
93979288,55169
93985505,55166
93991700,55164
93997198,55166
94003375,55168
94009605,55163
94015813,55160
94022016,55154
94028253,55159
94034531,55164
94040797,55152
94047064,55158
94052621,55151
94058871,55152
94065040,55151
94071297,55150
94077525,55152
94083769,55142
94089993,55146
94096232,55148
94101473,55139
94113683,55115
94119904,55112
94126101,55112
94131342,55105
94137539,55109
94143730,55102
94149932,55107
94156130,55107
94162355,55107
94168590,55112
94174822,55106
94181034,55109
94187219,55110
94200017,55107
94206302,55114
94212582,55101
94218807,55106
94224971,55104
94231180,55108
94242923,55115
94249194,55118
94255364,55117
94261600,55115
94267806,55133
94274045,55125
94280248,55127
94286377,55128
94292555,55132
94298738,55129
94304948,55132
94311130,55131
94317321,55130
94322536,55134
94329358,55136
94335602,55139
94341753,55140
94347975,55145
94354165,55138
94360368,55141
94365857,55145
94377323,55206
94383532,55216
94389688,55214
94395902,55215
94401321,55219
94407488,55234
94413668,55227
94419882,55223
94426031,55231
94432255,55228
94438502,55240
94444682,55236
94450901,55234
94456126,55250
94462316,55257
94468513,55266
94474683,55270
94480844,55261
94487068,55262
94493257,55265
94499461,55278
94511175,55364
94517351,55369
94523552,55358
94529723,55362
94534947,55358
94541733,55375
94547965,55371
94554169,55370
94560362,55370
94566577,55377
94572757,55370
94578965,55376
94585152,55374
94590643,55370
94596828,55373
94603025,55372
94609227,55382
94615448,55378
94621669,55374
94627941,55375
94634117,55378
94639320,55373
94645559,55462
94651749,55455
94657940,55460
94664143,55458
94669620,55459
94675833,55458
94682060,55467
94688257,55465
94694441,55464
94700633,55474
94706898,55470
94713110,55478
94719306,55472
94725542,55478
94731691,55483
94737887,55476
94744112,55471
94750330,55472
94757163,55482
94763371,55483
94769575,55478
94774801,55483
94786396,55509
94792601,55512
94798802,55514
94803973,55520
94810140,55517
94816328,55519
94822542,55524
94828745,55526
94834957,55523
94841117,55533
94847355,55532
94853566,55532
94859744,55529
94865200,55533
94871362,55541
94877538,55541
94883701,55525
94889906,55534
94896117,55535
94902320,55540
94907570,55546
94913756,55544
94919974,55523
94926237,55515
94932434,55519
94938604,55518
94944753,55518
94950920,55513
94957050,55506
94963862,55511
94970090,55499
94976320,55508
94982510,55505
94988728,55510
94994909,55507
95000378,55502
95006605,55500
95012798,55498
95018981,55499
95025196,55498
95031373,55501
95037570,55498
95042737,55490
95048936,55493
95060640,55452
95066901,55453
95073128,55450
95078365,55450
95084577,55460
95090874,55445
95097096,55445
95103330,55447
95109555,55454
95115771,55453
95122028,55453
95128263,55451
95133727,55450
95139972,55452
95146202,55453
95152423,55457
95158654,55452
95164865,55453
95171101,55458
95177940,55443
95184140,55448
95195603,55435
95201847,55436
95208028,55434
95213499,55439
95219743,55437
95225987,55438
95232190,55437
95238468,55431
95244709,55429
95250950,55425
95257176,55429
95263402,55438
95268661,55434
95274883,55436
95281138,55431
95287340,55436
95293592,55428
95299840,55427
95306072,55439
95312310,55434
95317807,55442
95329216,55440
95335452,55442
95341665,55440
95347109,55442
95353272,55445
95359434,55437
95365629,55444
95371823,55446
95378021,55437
95384201,55432
95390931,55443
95397177,55435
95403377,55440
95409611,55446
95415817,55438
95421995,55438
95428207,55433
95434442,55442
95440646,55439
95458677,55437
95464940,55435
95471142,55435
95476596,55429
95482809,55428
95489022,55434
95495211,55431
95501407,55435
95507610,55436
95513845,55430
95520073,55431
95526278,55426
95532451,55426
95538683,55419
95544924,55419
95551105,55422
95557272,55424
95563462,55419
95569648,55424
95575868,55423
95582056,55423
95593561,55377
95599718,55391
95606463,55389
95612032,55384
95618265,55387
95624410,55380
95630573,55385
95636748,55377
95642950,55377
95649154,55377
95655351,55380
95661522,55376
95667668,55373
95672935,55372
95679113,55373
95685334,55369
95691507,55370
95697676,55365
95703866,55368
95710062,55366
95716298,55365
95728050,55277
95734265,55277
95740433,55276
95745932,55272
95752124,55259
95758323,55263
95764533,55259
95770702,55251
95776933,55247
95783132,55245
95789353,55246
95795542,55225
95801770,55227
95806982,55232
95813180,55218
95820039,55220
95826275,55213
95832481,55205
95838675,55209
95844897,55201
95851160,55199
95861829,55115
95868087,55112
95874264,55122
95880454,55128
95886689,55123
95892924,55119
95899140,55124
95905367,55118
95911557,55130
95917725,55134
95923968,55128
95930201,55123
95936436,55122
95941937,55134
95948158,55136
95954396,55128
95960602,55127
95966833,55120
95973061,55122
95979311,55120
95985586,55129
95996393,55175
96002571,55177
96008749,55180
96015001,55182
96020476,55174
96026684,55183
96033509,55190
96039648,55176
96045862,55192
96052074,55185
96058272,55186
96064457,55187
96070665,55194
96075859,55191
96082031,55192
96088213,55196
96094423,55191
96100606,55199
96106779,55197
96113017,55195
96119259,55195
96130882,55237
96137099,55237
96143298,55233
96149485,55252
96154682,55234
96160850,55240
96167022,55239
96173232,55242
96179407,55236
96185593,55247
96191780,55241
96197950,55245
96204140,55248
96210379,55249
96216530,55245
96222732,55261
96228909,55255
96235136,55263
96242023,55221
96248250,55257
96254501,55256
96265178,55265
96271389,55264
96277580,55266
96283724,55264
96289145,55267
96295324,55264
96301526,55267
96307700,55263
96313942,55258
96320124,55262
96326304,55261
96332529,55264
96338729,55268
96344975,55268
96350170,55269
96356350,55269
96362527,55274
96368703,55273
96374876,55268
96381077,55286
96387293,55277
96393513,55275
96399742,55284
96405928,55290
96412106,55287
96418287,55285
96423723,55292
96429945,55284
96436118,55291
96442324,55296
96448526,55289
96455319,55285
96461516,55290
96467726,55290
96473939,55294
96480164,55293
96485394,55289
96491575,55291
96497790,55297
96504010,55287
96510293,55296
96516504,55300
96522692,55302
96528890,55294
96539579,55291
96545760,55286
96551929,55287
96558093,55287
96564303,55283
96570516,55279
96576705,55274
96582930,55281
96589131,55282
96595365,55272
96601565,55265
96607720,55278
96613904,55273
96619387,55275
96625579,55271
96631745,55265
96637948,55261
96644138,55268
96650304,55262
96656532,55258
96663359,55260
96674099,55236
96680310,55231
96686549,55243
96699592,55237
96705823,55230
96712083,55231
96718297,55231
96724524,55247
96730729,55232
96736941,55232
96743165,55235
96748393,55232
96754591,55233
96760786,55229
96766985,55225
96773172,55229
96779407,55229
96785614,55223
96791792,55219
96797976,55221
96804184,55218
96810380,55215
96816586,55215
96822800,55215
96828956,55217
96834380,55208
96840564,55215
96846696,55217
96852946,55215
96859159,55212
96865363,55218
96871553,55222
96878382,55216
96883644,55220
96889864,55210
96896064,55216
96902240,55216
96908413,55216
96914599,55211
96920791,55220
96926999,55215
96937659,55205
96943799,55219
96950011,55221
96956166,55209
96962366,55223
96967867,55221
96974027,55221
96980238,55219
96986449,55230
96992625,55223
96998827,55224
97005042,55220
97011239,55219
97017411,55224
97023594,55227
97029798,55223
97036000,55230
97042166,55224
97048343,55216
97054574,55221
97060741,55226
97066941,55220
97072156,55230
97078381,55232
97084601,55228
97091446,55234
97097648,55228
97103117,55231
97109299,55230
97115489,55233
97121729,55235
97127967,55225
97134197,55230
97140384,55236
97146589,55234
97152755,55241
97157966,55236
97164131,55228
97170352,55236
97176536,55243
97182717,55239
97188919,55237
97195140,55242
97201367,55241
97212022,55259
97218261,55266
97224481,55269
97230708,55258
97236156,55268
97242356,55268
97248616,55264
97254867,55272
97261149,55263
97267406,55270
97273655,55270
97279893,55270
97286098,55267
97291634,55269
97297863,55268
97304757,55270
97311015,55267
97317245,55258
97323494,55267
97329729,55261
97335967,55262
97346781,55237
97353030,55246
97359220,55244
97365432,55234
97370905,55242
97377101,55241
97383366,55237
97389607,55233
97395879,55232
97402109,55235
97408329,55228
97414546,55230
97420728,55221
97425931,55228
97432163,55224
97438339,55223
97444534,55224
97450800,55228
97457038,55219
97463270,55226
97469502,55225
97480218,55198
97486498,55207
97492733,55205
97498963,55207
97505186,55201
97512031,55206
97518291,55194
97524541,55204
97530778,55201
97536957,55199
97543185,55203
97549434,55202
97555659,55204
97561139,55203
97567365,55205
97573546,55201
97579761,55199
97586014,55200
97592221,55201
97598455,55198
97604701,55204
97615552,55163
97621748,55161
97628012,55153
97634193,55156
97640383,55159
97645910,55154
97652103,55155
97658281,55147
97664457,55151
97670672,55142
97676969,55147
97683190,55149
97689414,55148
97695681,55149
97701927,55136
97708140,55139
97714351,55132
97720594,55140
97727504,55139
97733733,55145
97739969,55137
97745207,55109
97751471,55108
97757675,55111
97763859,55105
97770061,55097
97776273,55101
97782522,55103
97788738,55092
97795037,55099
97801274,55095
97807505,55104
97813744,55094
97819975,55091
97826193,55090
97832440,55096
97838662,55097
97844928,55097
97851179,55100
97857465,55086
97863704,55089
97869942,55091
97875449,55098
97886975,55084
97893182,55085
97899410,55083
97905643,55082
97911853,55074
97917330,55078
97923613,55080
97929824,55075
97936647,55074
97949461,55077
97955737,55071
97962015,55072
97967470,55064
97973660,55074
97979878,55075
97986079,55074
97992284,55074
97998508,55069
98004773,55071
98016205,55064
98022443,55061
98028620,55058
98034841,55066
98041026,55060
98046498,55063
98052710,55062
98058906,55060
98065145,55060
98071340,55062
98077551,55058
98083735,55058
98089951,55058
98096125,55052
98101375,55053
98107567,55059
98113727,55053
98119912,55051
98126126,55057
98132343,55061
98138593,55049
98149297,55001
98156135,54998
98162388,55002
98168595,55005
98174761,54995
98180205,54991
98186385,54993
98192634,54993
98198863,54995
98205091,54991
98211336,54999
98217573,54989
98223844,54982
98230045,54988
98236279,54988
98242525,54990
98248732,54984
98254984,54977
98261197,54974
98267442,54973
98273680,54976
98284472,54950
98290693,54948
98296884,54950
98303080,54948
98309301,54949
98314802,54947
98320992,54948
98327186,54939
98333399,54951
98339587,54954
98345787,54951
98352012,54956
98358271,54946
98365097,54952
98371322,54955
98376487,54953
98382697,54949
98388990,54956
98395248,54949
98401507,54949
98407739,54956
98418507,54889
98424648,54895
98430928,54899
98437140,54892
98443353,54892
98448855,54890
98455084,54888
98461315,54891
98467566,54888
98473786,54881
98480054,54884
98486255,54888
98492470,54892
98498725,54888
98504956,54887
98510142,54890
98516389,54884
98522597,54889
98528810,54895
98535072,54886
98541320,54893
98552036,54872
98558254,54867
98564490,54876
98570743,54875
98577583,54872
98583865,54877
98590072,54874
98596289,54881
98602530,54875
98608793,54879
98615042,54876
98621287,54877
98627524,54874
98633758,54877
98639960,54868
98645430,54873
98651654,54878
98657871,54876
98664097,54882
98670252,54871
98676534,54875
98681766,54868
98687957,54877
98694153,54877
98700403,54862
98706635,54867
98712877,54872
98719087,54868
98724557,54870
98730849,54881
98737083,54872
98743346,54875
98749564,54875
98755807,54873
98762046,54875
98768257,54869
98774490,54867
98779763,54873
98785989,54877
98792881,54868
98799107,54870
98805374,54872
98811616,54875
98822305,54856
98828541,54855
98834781,54851
98841044,54858
98847288,54854
98853512,54856
98858999,54856
98865257,54841
98871515,54853
98877764,54863
98884009,54849
98890213,54856
98896416,54846
98902625,54854
98908869,54850
98914075,54852
98920251,54846
98926457,54853
98932687,54855
98938952,54842
98945211,54842
98950714,54848
98956969,54797
98963175,54789
98969416,54782
98975615,54786
98981830,54773
98988058,54776
98993258,54777
98999484,54767
99006364,54776
99012554,54778
99018822,54782
99025057,54778
99031342,54773
99037529,54767
99043749,54755
99049255,54767
99055413,54764
99061604,54758
99067881,54753
99074089,54752
99080307,54749
99091139,54698
99097361,54702
99103589,54706
99109802,54696
99116059,54707
99122275,54703
99127761,54696
99133997,54694
99140199,54695
99146426,54690
99152641,54686
99158871,54685
99165125,54688
99171365,54687
99177620,54683
99182808,54683
99189070,54683
99201909,54688
99208170,54685
99214492,54683
99221354,54674
99227598,54667
99233817,54674
99240010,54668
99246242,54677
99252439,54676
99257922,54674
99264134,54678
99270345,54679
99276569,54680
99282835,54680
99289089,54675
99295325,54675
99301560,54678
99307785,54682
99313013,54677
99319275,54676
99325483,54674
99331696,54678
99337914,54679
99344057,54683
99350274,54680
99360989,54691
99367167,54689
99373368,54693
99379630,54689
99385827,54691
99391289,54702
99397515,54697
99403774,54691
99409989,54697
99416206,54684
99422424,54697
99428644,54689
99435559,54693
99441717,54691
99446905,54687
99453161,54693
99459406,54691
99465616,54695
99471871,54697
99478089,54687
99484343,54693
99495092,54697
99501297,54693
99507518,54695
99513729,54696
99519955,54688
99525414,54696
99531643,54693
99537862,54686
99544120,54697
99550334,54693
99556588,54690
99562861,54686
99569118,54690
99575322,54689
99581578,54689
99587747,54689
99593982,54682
99600163,54692
99606341,54683
99612525,54680
99618745,54688
99629559,54683
99635751,54685
99641940,54684
99648796,54667
99654981,54676
99660400,54675
99666603,54680
99672762,54673
99679002,54678
99685226,54677
99691395,54669
99697609,54678
99703841,54674
99710043,54666
99716246,54671
99721429,54664
99727601,54667
99733758,54671
99739950,54668
99746087,54671
99752321,54659
99757758,54661
99763964,54618
99770161,54606
99776342,54613
99782486,54612
99788687,54612
99794928,54610
99801071,54610
99807268,54595
99813421,54603
99819663,54602
99825886,54607
99832103,54590
99838326,54596
99844594,54595
99850813,54590
99856945,54650
99863176,54586
99869415,54580
99875641,54580
99881901,54582
99888097,54580
99893339,54582
99905055,54551
99911301,54548
99917551,54553
99923771,54549
99929026,54549
99935232,54551
99941450,54541
99947686,54547
99953945,54547
99960148,54542
99966375,54538
99972562,54542
99978864,54541
99985057,54542
99990579,54536
99996828,54538
100002990,54537
100009247,54530
100015517,54529
100021764,54540
100027000,54531
100038629,54507
100044860,54510
100051074,54506
100057262,54504
100063433,54510
100070196,54505
100076389,54508
100082613,54502
100088873,54502
100095052,54505
100101258,54508
100107472,54507
100113672,54508
100119913,54512
100125093,54508
100131287,54510
100137509,54512
100143718,54501
100149913,54512
100156096,54511
100161526,54504
100172944,54515
100179121,54518
100185322,54510
100191500,54517
100197672,54522
100203119,54515
100209334,54516
100215544,54520
100221726,54519
100227962,54515
100234200,54517
100240353,54515
100246564,54519
100252724,54527
100258963,54514
100265129,54522
100271301,54521
100277462,54518
100284223,54521
100290467,54526
100295661,54520
100307350,54536
100313545,54532
100319715,54536
100325936,54526
100332126,54525
100337353,54531
100343506,54540
100349701,54532
100355947,54537
100362127,54527
100368369,54526
100374565,54535
100380758,54539
100386936,54533
100393129,54536
100398628,54531
100404797,54536
100411018,54539
100417234,54538
100423450,54534
100429664,54538
100435895,54545
100442130,54534
100454982,54538
100461161,54534
100467462,54534
100473642,54533
100479826,54525
100486004,54522
100492184,54527
100499058,54521
100505280,54527
100511525,54515
100517745,54520
100523992,54516
100529419,54511
100535601,54508
100541761,54507
100547960,54509
100554173,54504
100559373,54500
100565589,54495
100577314,54467
100583497,54464
100589706,54454
100595892,54458
100602088,54458
100607305,54464
100613444,54468
100619671,54463
100625857,54463
100632064,54460
100638199,54460
100644422,54466
100650601,54460
100656772,54461
100662973,54460
100669105,54456
100675329,54455
100681482,54453
100687697,54446
100693125,54448
100699334,54452
100711699,54437
100717951,54434
100724144,54438
100730338,54437
100736533,54437
100741736,54436
100747934,54442
100754111,54435
100760315,54428
100766518,54432
100772732,54436
100778945,54434
100785155,54433
100791381,54429
100797591,54429
100803020,54434
100809222,54426
100815418,54429
100821662,54428
100827904,54436
100834125,54421
100845552,54430
100851783,54422
100857962,54423
100864171,54426
100870407,54428
100875857,54431
100882086,54428
100888325,54423
100894480,54426
100900695,54433
100906876,54428
100913046,54429
100919880,54429
100926022,54434
100932183,54432
100937369,54430
100943527,54435
100949705,54435
100955918,54432
100962106,54440
100967540,54437
100973734,54437
100979960,54449
100986164,54448
100992323,54442
100998489,54451
101004655,54451
101010853,54453
101017050,54447
101023190,54448
101029370,54456
101035589,54456
101041748,54452
101047975,54446
101054172,54456
101060350,54454
101066538,54459
101071742,54436
101077947,54458
101084113,54461
101090339,54464
101096537,54460
101101976,54469
101108194,54459
101119542,54471
101125711,54473
101132503,54476
101138683,54483
101144885,54476
101150274,54475
101156461,54477
101162687,54466
101168925,54473
101175132,54473
101181323,54481
101187528,54486
101193704,54481
101199909,54483
101206099,54485
101212293,54478
101218533,54476
101224757,54484
101230989,54474
101236212,54471
101242429,54473
101254214,54467
101260436,54456
101266642,54460
101272837,54452
101279031,54450
101284492,54454
101290675,54448
101296926,54453
101303060,54453
101309258,54438
101315447,54445
101321667,54446
101327916,54444
101334044,54449
101340923,54451
101346136,54456
101352331,54455
101358551,54454
101364750,54451
101370187,54455
101376397,54459
101382585,54455
101388779,54457
101395010,54452
101401198,54466
101407378,54447
101413567,54456
101418788,54448
101424963,54439
101431151,54439
101437367,54443
101443621,54438
101449800,54441
101456044,54441
101462275,54436
101468500,54432
101474690,54434
101480175,54433
101486409,54443
101492652,54434
101498921,54432
101505137,54441
101511365,54437
101517659,54443
101529079,54425
101535288,54411
101541529,54407
101547694,54413
101554554,54415
101560802,54414
101567050,54407
101573291,54413
101579518,54406
101585751,54409
101592004,54411
101598273,54412
101604507,54401
101610745,54409
101616249,54401
101622468,54407
101628715,54407
101634977,54403
101640190,54409
101646412,54404
101652679,54400
101664373,54402
101670589,54407
101676837,54408
101683076,54417
101689285,54409
101701105,54416
101707369,54424
101713681,54420
101719971,54414
101726230,54419
101732461,54416
101738660,54418
101744136,54413
101750375,54415
101756591,54418
101762811,54418
101768073,54417
101775014,54420
101781243,54421
101792950,54431
101799189,54426
101805403,54423
101811664,54426
101817876,54426
101823121,54433
101829341,54427
101835530,54425
101841719,54430
101847903,54433
101854100,54434
101860311,54427
101866478,54426
101872664,54433
101878844,54430
101885045,54435
101891226,54421
101897409,54423
101902846,54423
101909096,54421
101915305,54417
101926680,54378
101932860,54374
101939037,54370
101945207,54367
101951399,54368
101957583,54368
101963782,54358
101970005,54364
101976184,54365
101983042,54356
101989304,54364
101995502,54373
102001678,54370
102007887,54366
102014070,54358
102019528,54355
102025729,54357
102031979,54360
102037165,54355
102043405,54358
102049629,54355
102061224,54351
102067426,54352
102073615,54363
102079799,54364
102086013,54365
102092200,54367
102098382,54365
102104591,54368
102110818,54361
102117022,54368
102123245,54361
102129439,54357
102135670,54367
102141856,54363
102148054,54369
102153236,54365
102159411,54368
102165652,54364
102171838,54368
102178023,54363
102184197,54370
102196516,54383
102202740,54392
102208967,54384
102215159,54388
102221323,54380
102227500,54384
102232720,54392
102238891,54385
102245075,54394
102251291,54398
102257550,54393
102263742,54390
102270017,54402
102276230,54399
102282431,54396
102287879,54397
102294065,54397
102300309,54399
102306494,54404
102311652,54398
102317847,54397
102324031,54407
102330221,54433
102336435,54433
102342652,54442
102348824,54435
102355034,54451
102361211,54444
102366661,54442
102372892,54446
102379099,54452
102385285,54450
102391479,54457
102397684,54455
102403890,54455
102410736,54457
102416992,54454
102422187,54463
102428431,54462
102434659,54460
102440868,54469
102446337,54467
102452524,54476
102458715,54475
102470156,54537
102476368,54541
102482566,54536
102488804,54548
102495016,54548
102500460,54554
102506687,54560
102512918,54553
102519109,54566
102525281,54564
102531496,54580
102537702,54582
102543881,54586
102550096,54581
102556367,54581
102562610,54583
102568836,54579
102575065,54577
102580302,54579
102586551,54579
102592776,54572
102604513,54563
102610728,54556
102616980,54552
102623863,54555
102630104,54554
102635308,54550
102641484,54550
102647677,54552
102653918,54553
102660125,54555
102666374,54552
102672606,54563
102678814,54565
102685078,54561
102691289,54553
102696776,54558
102703025,54555
102709229,54560
102714482,54546
102720657,54554
102726922,54550
102733192,54554
102739414,54574
102745635,54580
102751824,54573
102758078,54570
102764281,54574
102769816,54574
102776041,54574
102782282,54577
102788499,54580
102794737,54573
102800968,54587
102807129,54588
102813335,54587
102819570,54583
102825779,54587
102831977,54590
102838198,54586
102844461,54583
102849713,54590
102855972,54584
102862154,54580
102873908,54606
102880097,54603
102886333,54598
102892533,54600
102898779,54599
102904003,54600
102910243,54601
102916460,54603
102922648,54597
102928883,54608
102935089,54603
102941334,54607
102954195,54605
102960432,54610
102966704,54609
102972975,54613
102978457,54610
102984708,54617
102990939,54616
102997203,54613
103003403,54630
103009671,54621
103015915,54627
103022101,54618
103028353,54619
103033610,54631
103039847,54624
103046115,54619
103053021,54629
103059277,54635
103065538,54619
103071756,54626
103078024,54632
103084271,54636
103090492,54629
103095976,54638
103102203,54629
103108420,54636
103113627,54635
103119895,54634
103126127,54636
103137728,54656
103143955,54659
103150161,54657
103156324,54659
103162505,54658
103168711,54659
103174920,54662
103181126,54657
103187329,54661
103193561,54662
103199752,54662
103205991,54663
103212187,54669
103218347,54671
103224557,54665
103229743,54667
103235945,54662
103242092,54663
103247534,54664
103253778,54669
103260015,54674
103272129,54639
103278336,54630
103284529,54627
103290711,54623
103296911,54632
103303079,54614
103308530,54627
103314714,54628
103320924,54624
103327123,54623
103333340,54620
103339545,54621
103345717,54627
103351954,54624
103358183,54622
103363384,54617
103369548,54614
103375726,54612
103381941,54619
103388113,54608
103394314,54615
103400543,54614
103406731,54608
103412921,54606
103419134,54606
103425323,54612
103431518,54610
103437730,54602
103443187,54608
103449401,54604
103455631,54607
103461860,54615
103468079,54601
103474963,54602
103481173,54603
103487363,54607
103493504,54597
103498725,54597
103504947,54600
103511133,54603
103516600,54601
103522830,54609
103529031,54595
103535245,54601
103546673,54605
103552879,54606
103559059,54612
103565242,54606
103571451,54608
103576916,54606
103583098,54611
103589258,54611
103595444,54611
103601646,54616
103607928,54619
103614141,54611
103620367,54618
103626524,54626
103632712,54626
103638829,54627
103645136,54627
103650364,54634
103656551,54638
103662762,54636
103668974,54638
103675161,54645
103681351,54667
103688148,54668
103694330,54675
103700517,54670
103706702,54667
103712163,54660
103718380,54669
103724590,54669
103730757,54665
103736996,54675
103743187,54676
103749374,54680
103755549,54672
103761731,54672
103767912,54675
103773104,54667
103779328,54673
103784764,54682
103791013,54674
103797207,54677
103803388,54674
103809592,54679
103820945,54699
103827156,54697
103833321,54694
103839505,54691
103845702,54691
103851951,54694
103858138,54689
103864356,54684
103870558,54683
103876815,54678
103882997,54681
103889163,54682
103896009,54674
103902247,54675
103907723,54670
103913948,54665
103919186,54671
103925422,54672
103931604,54661
103937771,54662
103943958,54660
103955580,54620
103961736,54628
103967992,54621
103974192,54620
103980385,54623
103985565,54625
103991742,54615
103997943,54619
104004092,54617
104010322,54616
104016494,54619
104022710,54624
104028892,54617
104035096,54612
104041302,54611
104047508,54622
104053705,54631
104059908,54623
104066123,54621
104072345,54614
104078530,54619
104090222,54621
104096425,54626
104102582,54621
104109436,54617
104115659,54617
104120854,54624
104127051,54621
104133218,54615
104139459,54617
104145693,54618
104151948,54619
104158149,54625
104164383,54622
104170505,54621
104176723,54618
104182152,54622
104188390,54618
104200195,54623
104206498,54623
104212752,54621
104218967,54646
104225151,54645
104231336,54646
104237556,54646
104243765,54653
104249190,54641
104255406,54652
104261589,54650
104267778,54651
104274004,54649
104280230,54656
104286395,54659
104292592,54654
104298779,54658
104304989,54658
104311163,54663
104317357,54656
104322601,54659
104329432,54663
104335636,54665
104341810,54660
104348021,54664
104359652,54694
104365816,54691
104372006,54689
104378184,54690
104384365,54700
104390547,54688
104396741,54690
104403003,54688
104409210,54693
104415421,54688
104421636,54695
104427792,54697
104433983,54697
104440146,54698
104445669,54698
104451952,54701
104457207,54698
104463432,54699
104469659,54695
104475862,54710
104482064,54706
104493665,54691
104499857,54678
104506057,54677
104512239,54681
104518418,54688
104523612,54681
104529821,54679
104536668,54677
104542925,54681
104549150,54677
104555330,54674
104561510,54669
104567729,54666
104573907,54666
104579327,54660
104585519,54665
104591706,54660
104597913,54661
104604126,54661
104610347,54652
104616593,54666
104627988,54643
104634228,54642
104640410,54640
104646645,54640
104652891,54639
104658382,54639
104664642,54640
104670874,54646
104677125,54641
104683370,54655
104689617,54649
104695824,54643
104702059,54644
104708294,54638
104714551,54641
104720792,54635
104727057,54637
104732296,54630
104738521,54629
104744771,54634
104751615,54640
104763350,54638
104769551,54635
104775803,54629
104782031,54637
104788244,54633
104793802,54634
104799996,54631
104806184,54630
104812422,54642
104818681,54635
104824920,54640
104831162,54636
104837346,54639
104843583,54632
104849838,54629
104855073,54639
104861331,54635
104866829,54640
104873043,54639
104879252,54638
104885463,54638
104896981,54651
104903183,54643
104909443,54642
104915650,54651
104921917,54648
104927431,54653
104933656,54653
104939914,54648
104946149,54657
104952379,54657
104958623,54651
104965491,54652
104971745,54657
104977998,54659
104984218,54646
104989426,54658
104995640,54658
105001138,54657
105007325,54663
105013525,54656
105019798,54660
105031262,54679
105037453,54684
105043662,54680
105049840,54688
105056059,54682
105061549,54688
105067778,54683
105074019,54689
105080232,54685
105086467,54694
105092680,54689
105098934,54683
105105091,54683
105111218,54682
105117351,54696
105123604,54699
105129838,54690
105135100,54702
105141343,54701
105147610,54705
105153917,54702
105160129,54700
105166345,54687
105173183,54680
105179449,54673
105185669,54679
105191855,54678
105197338,54679
105203589,54674
105209743,54676
105215948,54677
105222150,54678
105228387,54683
105234584,54672
105240834,54670
105247092,54672
105253326,54675
105258555,54676
105264781,54678
105270272,54672
105276513,54671
105282734,54666
105288978,54672
105300418,54661
105306633,54653
105312893,54669
105319114,54661
105325363,54663
105330879,54664
105337125,54666
105343350,54663
105349616,54660
105355819,54654
105362053,54661
105368257,54660
105374483,54655
105380696,54663
105387582,54663
105392777,54664
105399049,54659
105404517,54669
105410754,54657
105416972,54660
105423193,54662
105429406,54656
105435638,54671
105441777,54673
105454642,54686
105460138,54677
105466419,54677
105472636,54687
105478881,54684
105485074,54683
105491294,54691
105497540,54681
105503833,54686
105510069,54692
105516294,54688
105521589,54689
105527795,54690
105533322,54688
105539543,54697
105545797,54692
105552052,54691
105558245,54690
105564466,54720
105570716,54714
105576936,54714
105583131,54720
105589354,54717
105594605,54723
105600852,54712
105607692,54717
105613924,54719
105620161,54718
105626434,54717
105632643,54721
105638878,54720
105645124,54726
105651330,54730
105656776,54723
105663020,54726
105668266,54729
105674506,54728
105680715,54725
105686966,54727
105693126,54726
105704806,54752
105711043,54756
105717282,54750
105723482,54757
105729735,54758
105735980,54758
105742173,54757
105748425,54758
105754683,54762
105760890,54765
105767137,54758
105773369,54761
105779623,54769
105785877,54768
105791090,54756
105797269,54766
105802759,54767
105808912,54759
105815109,54764
105822047,54767
105828269,54767
105839741,54766
105845983,54767
105852176,54764
105858394,54762
105864590,54765
105870084,54763
105876319,54769
105882571,54761
105888832,54753
105895035,54755
105901263,54753
105907516,54753
105913741,54759
105919953,54757
105925189,54762
105931448,54754
105936946,54754
105943187,54746
