55528702,22666
55535068,22660
55541464,22663
55547113,22662
55553306,22658
55559529,22658
55565693,22659
55570868,22650
55577085,22652
55583304,22649
55589513,22647
55595702,22651
55601905,22646
55607381,22646
55613589,22649
55619783,22645
55625987,22646
55632198,22647
55638373,22646
55644601,22654
55651507,22647
55657752,22653
55663966,22649
55670137,22656
55676311,22663
55681538,22667
55687743,22675
55693979,22680
55700134,22676
55705531,22670
55711724,22670
55717901,22668
55724096,22665
55730325,22668
55736537,22663
55741715,22657
55747914,22650
55754135,22650
55760311,22646
55766572,22631
55772779,22629
55784430,22575
55790647,22571
55796858,22578
55803067,22573
55809258,22571
55814452,22573
55820633,22569
55826787,22568
55833019,22568
55839195,22565
55844738,22564
55850955,22559
55857767,22561
55864030,22555
55870205,22553
55876419,22557
55882598,22556
55888748,22556
55894966,22579
55901139,22545
55907298,22554
55918951,22524
55925160,22514
55931359,22518
55937566,22517
55943761,22511
55948948,22516
55955112,22514
55961312,22512
55967493,22511
55973723,22507
55979190,22509
55985386,22506
55991619,22509
55997849,22506
56003962,22508
56010146,22512
56016310,22508
56022539,22498
56028681,22544
56034899,22508
56041066,22506
56047244,22504
56053424,22518
56059643,22517
56065848,22520
56072666,22525
56078890,22520
56084083,22522
56090289,22522
56096560,22519
56102720,22528
56108875,22522
56115105,22529
56121347,22519
56127570,22531
56133752,22524
56139969,22527
56146163,22528
56151576,22529
56157775,22529
56163965,22530
56170164,22527
56176314,22529
56182522,22530
56193928,22567
56200147,22565
56206329,22563
56212522,22570
56217990,22566
56224176,22567
56230376,22579
56236596,22567
56242769,22574
56248031,22577
56254227,22571
56260430,22581
56266647,22579
56272834,22579
56279643,22579
56285101,22583
56291292,22578
56297502,22582
56303708,22585
56309936,22585
56316163,22581
56327563,22554
56333745,22559
56339924,22556
56346134,22552
56352305,22553
56358528,22552
56364687,22544
56370878,22546
56377107,22543
56382585,22541
56388788,22535
56394946,22534
56401107,22530
56407263,22528
56413429,22528
56419642,22528
56425840,22522
56432047,22525
56438205,22514
56444395,22517
56450605,22507
56462029,22364
56468213,22359
56474403,22358
56480601,22347
56486793,22344
56492922,22340
56499193,22334
56505427,22327
56511604,22325
56517051,22318
56523282,22311
56529501,22307
56535722,22299
56541917,22299
56548145,22289
56554318,22280
56559518,22280
56565766,22269
56571961,22269
56578112,22264
56584318,22260
56590510,22252
56596689,22146
56602955,22136
56609187,22137
56615349,22134
56621538,22119
56626953,22115
56633159,22115
56639332,22109
56645547,22116
56650762,22107
56656955,22093
56663140,22098
56669310,22096
56675473,22086
56681643,22085
56687811,22087
56693288,22082
56699451,22082
56712796,22070
56719047,22075
56725325,22058
56731546,21973
56737725,21972
56743925,21962
56750124,21958
56755615,21961
56761787,21956
56767964,21950
56774158,21949
56779396,21953
56785625,21952
56791864,21946
56798071,21949
56804307,21952
56810480,21952
56816670,21942
56822867,21949
56829067,21951
56835275,21945
56841431,21942
56847643,21944
56853842,21950
56860076,21944
56871702,21891
56877886,21887
56884072,21888
56890294,21881
56896507,21893
56902755,21896
56908955,21899
56914142,21896
56921025,21897
56927209,21906
56933398,21905
56939600,21907
56945752,21908
56951942,21908
56958144,21906
56963600,21912
56969747,21908
56975935,21908
56982114,21914
56988296,21906
56994522,21911
57006002,21973
57012192,21969
57018378,21977
57024580,21982
57030012,21983
57036201,21992
57042412,21991
57048676,21995
57054860,22001
57061085,22008
57067263,21999
57073431,22013
57079622,22016
57085815,22019
57092030,22018
57097252,22026
57103446,22033
57109669,22037
57115834,22039
57122048,22045
57128847,22045
57140553,22088
57146733,22094
57152921,22101
57159102,22098
57164319,22105
57170492,22107
57176699,22108
57182917,22110
57188414,22110
57194650,22112
57200845,22119
57206994,22113
57213183,22122
57219395,22126
57225623,22124
57231834,22126
57238043,22129
57244187,22133
57250375,22129
57256606,22135
57262791,22132
57274212,22143
57280342,22130
57286524,22140
57292706,22139
57298152,22138
57304372,22141
57310617,22127
57316844,22134
57323056,22122
57329263,22115
57335490,22113
57342311,22112
57348493,22113
57354731,22115
57360946,22108
57367096,22107
57372311,22112
57378527,22114
57384723,22109
57390958,22100
57397140,22102
57408787,22157
57414925,22153
57421215,22154
57427387,22149
57432619,22142
57438797,22137
57445006,22137
57451192,22138
57457370,22129
57462874,22134
57469093,22126
57475282,22128
57481449,22130
57487632,22126
57493792,22132
57499970,22124
57506133,22121
57512336,22129
57518573,22122
57524780,22126
57530977,22124
57537175,22122
57543332,22223
57549524,22230
57556320,22228
57562516,22240
57567689,22240
57573899,22245
57580072,22244
57586296,22247
57592520,22246
57598089,22253
57604309,22250
57610464,22256
57616643,22263
57622832,22270
57629036,22273
57635224,22267
57641393,22277
57646875,22276
57653063,22275
57659259,22286
57665515,22285
57671707,22284
57683110,22298
57689296,22293
57695486,22297
57701694,22297
57707848,22296
57714054,22288
57720259,22298
57726465,22300
57731948,22291
57738129,22297
57744316,22298
57750446,22298
57756653,22300
57763465,22302
57769689,22300
57775870,22304
57781055,22301
57787269,22306
57793411,22308
57799625,22308
57805802,22313
57817443,22333
57823680,22332
57829888,22327
57836084,22334
57842300,22329
57848512,22329
57854725,22330
57860919,22326
57866151,22331
57872362,22321
57878539,22330
57884725,22334
57890918,22329
57897125,22336
57903315,22334
57909504,22333
57914968,22338
57921197,22333
57927396,22336
57933619,22340
57939838,22335
57945989,22341
57958778,22335
57964936,22334
57970486,22338
57976667,22337
57983596,22337
57989813,22337
57996015,22334
58002220,22333
58008430,22331
58014641,22327
58020858,22335
58027068,22328
58033307,22330
58039521,22328
58044723,22330
58050905,22326
58057135,22329
58063316,22330
58069481,22328
58075685,22322
58087311,22323
58093500,22327
58099706,22326
58104917,22326
58111099,22325
58117317,22330
58123536,22327
58129725,22324
58135158,22329
58141347,22328
58147523,22331
58153697,22328
58159889,22322
58166032,22322
58172225,22329
58178394,22326
58184622,22324
58191507,22331
58197753,22326
58203956,22320
58210133,22326
58221493,22290
58227698,22287
58233939,22283
58239401,22288
58245608,22289
58251775,22290
58257970,22283
58264125,22287
58269333,22285
58275545,22283
58281767,22286
58287995,22289
58294212,22289
58300414,22287
58306615,22291
58312777,22290
58318234,22287
58324439,22282
58330645,22291
58336854,22290
58343023,22289
58349264,22293
58355436,22297
58361626,22296
58367873,22298
58373063,22296
58379269,22302
58385423,22302
58391645,22301
58397834,22300
58404734,22298
58410926,22300
58417138,22296
58423345,22298
58429535,22306
58435692,22300
58441879,22309
58448102,22309
58453574,22302
58459774,22303
58465980,22304
58472133,22297
58478332,22307
58484456,22303
58495882,22301
58502073,22305
58507556,22305
58513704,22306
58519908,22305
58526085,22297
58532262,22306
58538450,22313
58544630,22304
58550806,22301
58556973,22311
58563185,22306
58569378,22306
58575600,22304
58581786,22300
58586994,22301
58593219,22304
58599447,22302
58605656,22299
58612422,22301
58618660,22302
58630265,22283
58636443,22284
58642655,22279
58648887,22284
58655070,22285
58661277,22284
58667501,22282
58673722,22286
58678957,22286
58685149,22276
58691333,22278
58697533,22286
58703722,22283
58709950,22276
58716169,22272
58721660,22278
58727877,22276
58734045,22277
58740259,22278
58746512,22280
58752728,22280
58764115,22242
58770319,22240
58776445,22238
58781935,22240
58788167,22241
58794344,22233
58800534,22238
58806696,22230
58812913,22235
58819068,22237
58825832,22233
58832048,22238
58838243,22240
58844437,22239
58850649,22232
58856849,22233
58863047,22235
58869246,22233
58875456,22234
58881699,22238
58887915,22232
58899301,22248
58905470,22249
58911683,22247
58917101,22251
58923305,22245
58929526,22247
58935695,22252
58941895,22253
58948078,22248
58953260,22248
58959440,22252
58965621,22249
58971819,22252
58978042,22249
58984255,22249
58990479,22257
58995955,22248
59002145,22254
59008333,22250
59014577,22251
59020776,22255
59026970,22251
59033154,22243
59039931,22239
59046123,22241
59051350,22236
59057543,22237
59063742,22237
59069953,22238
59076167,22233
59082370,22236
59087805,22237
59093952,22237
59100129,22240
59106344,22238
59112562,22238
59118721,22237
59124914,22239
59131106,22239
59137295,22231
59143528,22232
59149776,22231
59155955,22236
59162130,22234
59173531,22208
59179722,22205
59185131,22209
59191334,22200
59204114,22202
59210326,22203
59216628,22198
59222861,22194
59229075,22199
59235301,22194
59241547,22194
59247755,22197
59254599,22195
59260784,22192
59266253,22199
59272550,22197
59278771,22185
59284970,22193
59291176,22192
59302646,22192
59308827,22186
59314295,22184
59320523,22183
59326742,22182
59332979,22190
59339185,22181
59345365,22193
59351599,22184
59356827,22192
59363024,22190
59369199,22197
59375384,22191
59381585,22188
59387802,22195
59394018,22191
59399419,22196
59405661,22197
59411870,22192
59418055,22198
59424264,22192
59430474,22204
59436693,22194
59442919,22193
59449110,22200
59455313,22194
59461530,22202
59468382,22195
59474618,22193
59480819,22198
59486990,22198
59492171,22198
59498372,22200
59504600,22199
59510847,22196
59517062,22198
59523296,22190
59529537,22194
59535053,22197
59541344,22196
59547564,22196
59553782,22196
59559976,22199
59566170,22199
59577671,22218
59583886,22214
59589408,22215
59595619,22220
59601857,22223
59608085,22215
59614343,22219
59620596,22218
59625810,22219
59632055,22211
59638265,22218
59644500,22219
59650750,22226
59656978,22228
59663231,22225
59668765,22223
59674945,22224
59681823,22224
59688073,22221
59694336,22230
59700593,22224
59712044,22212
59718248,22215
59723714,22213
59729951,22209
59736187,22214
59742445,22211
59748682,22215
59754909,22208
59760153,22207
59766363,22211
59772583,22212
59778780,22204
59785025,22202
59791215,22206
59797458,22202
59803705,22206
59809967,22200
59816231,22208
59822448,22202
59828687,22205
59834917,22203
59846644,22203
59852848,22200
59858082,22198
59864282,22196
59870559,22199
59876782,22200
59883027,22200
59889868,22196
59895366,22196
59901628,22195
59907869,22203
59914095,22195
59920345,22195
59926570,22198
59932771,22201
59938308,22197
59944538,22201
59950783,22201
59956989,22202
59963237,22200
59969475,22198
59980954,22192
59987195,22192
59992703,22199
59998925,22197
60005178,22199
60011463,22193
60017735,22193
60023971,22192
60029177,22189
60035405,22185
60041654,22193
60047850,22197
60054074,22191
60060302,22189
60066551,22187
60072796,22189
60079064,22195
60085253,22191
60091458,22191
60097710,22187
60104611,22191
60116324,22163
60122478,22166
60127704,22167
60133885,22160
60140082,22164
60146348,22160
60152608,22158
60158838,22154
60164348,22158
60170540,22156
60176755,22154
60182986,22161
60189257,22158
60195485,22158
60201732,22152
60207284,22156
60213536,22150
60219791,22144
60226036,22149
60232273,22148
60238458,22151
60249966,22133
60256183,22142
60261712,22139
60267912,22132
60274134,22133
60280376,22136
60286627,22135
60292849,22134
60298095,22134
60304282,22139
60310483,22132
60317278,22137
60323496,22131
60329752,22135
60335980,22134
60341474,22129
60347736,22126
60353928,22129
60360146,22121
60366334,22128
60372539,22122
60384012,22118
60390170,22116
60395648,22119
60401889,22111
60408100,22121
60414286,22118
60420474,22116
60426679,22120
60432883,22114
60439077,22117
60445285,22121
60458088,22115
60464344,22111
60470640,22117
60476886,22112
60483078,22118
60489300,22113
60495478,22117
60501699,22114
60513106,22111
60519307,22109
60524780,22105
60530985,22101
60537837,22105
60544060,22110
60550291,22098
60556503,22107
60562718,22107
60567966,22102
60574170,22105
60580375,22109
60586554,22101
60592718,22107
60598923,22101
60605151,22100
60610596,22101
60616805,22097
60623009,22096
60629202,22100
60635401,22095
60641616,22097
60647796,22084
60654006,22082
60659177,22083
60665340,22078
60671526,22082
60677700,22081
60683913,22081
60690131,22085
60696316,22076
60701780,22082
60707987,22079
60714140,22078
60720349,22081
60726558,22080
60732719,22077
60738914,22075
60745776,22071
60751979,22078
60758174,22075
60764399,22070
60770647,22072
60776817,22071
60788258,22054
60793697,22048
60799907,22046
60806135,22044
60812305,22046
60818522,22044
60824711,22046
60830921,22049
60836131,22054
60842342,22052
60848502,22044
60854721,22046
60860908,22049
60867129,22048
60873344,22043
60879540,22049
60884957,22048
60891147,22041
60897345,22049
60903547,22041
60909743,22038
60915948,22047
60922096,22040
60927292,22034
60933439,22034
60939631,22040
60945821,22039
60952045,22041
60958821,22042
60965044,22040
60970481,22036
60976653,22037
60982837,22035
60989039,22032
60995208,22039
61001396,22035
61007652,22035
61013849,22036
61019050,22034
61025265,22032
61031422,22032
61037645,22027
61043787,22041
61049980,22032
61056200,22020
61061671,22025
61067858,22027
61074037,22019
61080253,22027
61086441,22025
61092704,22030
61098945,22024
61105117,22019
61111326,22025
61117481,22032
61123645,22022
61129829,22025
61136025,22027
61142215,22022
61148406,22025
61153675,22026
61159922,22015
61166751,22022
61172983,22022
61179160,22025
61185323,22021
61196292,22013
61202461,22019
61208655,22012
61214847,22018
61221037,22014
61227234,22011
61233413,22011
61239626,22017
61244813,22017
61250998,22017
61257139,22014
61263362,22009
61269630,22015
61275866,22013
61282104,22015
61288311,22007
61294506,22010
61300684,22010
61306849,22005
61313103,22004
61319287,22008
61330253,21997
61336449,21992
61342680,21999
61348857,21993
61355047,21993
61361276,21995
61367546,21993
61373745,21994
61379743,21990
61385950,21988
61392134,21991
61398333,21989
61404583,21991
61410757,21993
61417010,21991
61423233,21989
61428433,21990
61434656,21984
61440777,21991
61446979,21986
61453178,21983
61464837,21973
61471008,21976
61477224,21975
61483431,21968
61489650,21972
61495801,21972
61502011,21974
61508157,21974
61514357,21973
61520557,21976
61526701,21976
61532898,21969
61539089,21970
61545283,21971
61551451,21973
61557644,21972
61562819,21974
61569061,21972
61575241,21971
61581477,21971
61588299,21970
61599940,21956
61605464,21958
61611693,21959
61617907,21955
61624149,21953
61630355,21961
61636576,21966
61642724,21960
61648881,21961
61654132,21965
61660298,21958
61666487,21952
61672689,21960
61678850,21959
61685094,21955
61691316,21958
61704088,21955
61710316,21957
61716615,21954
61722833,21956
61729081,21950
61734553,21944
61740747,21942
61746937,21948
61753110,21947
61759317,21948
61765500,21947
61771730,21945
61777959,21947
61783137,21943
61789377,21947
61795569,21938
61801744,21947
61808510,21949
61814734,21945
61820963,21946
61826460,21943
61832680,21943
61838868,21948
61845073,21947
61851232,21949
61857439,21945
61868115,21940
61874315,21943
61880514,21940
61886717,21939
61892914,21940
61899169,21936
61905341,21940
61911533,21939
61917743,21936
61923906,21933
61930095,21939
61936299,21936
61942500,21940
61948672,21937
61954844,21935
61961088,21935
61967289,21935
61973469,21934
61979656,21933
61985806,21936
61992020,21935
62002976,21918
62009138,21923
62015946,21921
62022126,21917
62028327,21919
62034572,21914
62040782,21911
62046976,21916
62053186,21916
62058401,21914
62064595,21912
62070769,21916
62077011,21906
62083231,21914
62089449,21914
62095671,21907
62101110,21914
62107289,21911
62113484,21915
62119681,21912
62125904,21909
62136506,21901
62142697,21910
62148858,21903
62155093,21901
62161300,21909
62167503,21902
62173716,21899
62179846,21898
62186061,21901
62192239,21899
62198436,21895
62204668,21904
62210860,21899
62217081,21901
62223914,21900
62230173,21898
62235609,21898
62241809,21898
62248019,21895
62254197,21899
62260367,21902
62266522,21898
62271728,21888
62277974,21894
62284199,21898
62290371,21897
62296591,21891
62302776,21893
62309028,21898
62315242,21893
62321447,21898
62326925,21891
62333114,21890
62339315,21898
62345485,21885
62351689,21892
62357879,21882
62364079,21893
62370243,21891
62376430,21889
62382658,21896
62388856,21891
62395030,21889
62405587,21891
62411770,21886
62417942,21887
62424187,21886
62430370,21888
62437197,21882
62443362,21880
62449558,21878
62455758,21876
62461175,21878
62467337,21878
62473531,21874
62479739,21884
62485964,21884
62492171,21871
62498401,21872
62504658,21881
62509846,21874
62516030,21876
62522187,21873
62528391,21875
62534587,21875
62545199,21872
62551418,21865
62557639,21873
62563828,21872
62570062,21874
62576245,21869
62582440,21871
62588635,21875
62594810,21871
62600255,21870
62606432,21876
62612649,21873
62618865,21872
62625054,21874
62631250,21869
62637452,21870
62643646,21874
62650469,21871
62656699,21864
62662843,21877
62669032,21867
62679699,21855
62685950,21854
62692113,21849
62698324,21852
62704472,21852
62710659,21847
62716881,21850
62723053,21850
62729246,21854
62734440,21851
62740655,21844
62746824,21848
62753055,21846
62759275,21841
62765474,21847
62771711,21841
62777948,21845
62784108,21843
62790297,21847
62796502,21860
62802717,21841
62813766,21837
62819983,21842
62826220,21839
62832459,21840
62838710,21840
62844892,21836
62851099,21839
62857888,21836
62864060,21837
62869262,21840
62875511,21844
62881757,21840
62887966,21840
62894195,21841
62900405,21836
62906599,21843
62912789,21838
62918249,21839
62924471,21841
62930726,21842
62936962,21840
62954232,21832
62960487,21835
62966826,21828
62973078,21830
62979339,21829
62985567,21833
62991780,21820
62997260,21832
63003512,21828
63009731,21828
63016002,21827
63022274,21829
63028484,21831
63034751,21827
63040979,21830
63047247,21829
63053500,21824
63059701,21826
63065906,21823
63077280,21817
63083498,21805
63089752,21812
63095978,21810
63102189,21806
63108409,21809
63114653,21812
63120859,21809
63127093,21811
63132567,21802
63138764,21807
63144987,21802
63151217,21805
63157422,21807
63163679,21801
63169888,21799
63176129,21798
63182386,21797
63187610,21798
63193820,21807
63200049,21803
63211013,21785
63217216,21786
63223496,21781
63229736,21789
63235944,21784
63242171,21788
63248470,21789
63254666,21783
63260825,21782
63266006,21783
63272192,21784
63278417,21779
63284663,21781
63291496,21781
63297736,21787
63303962,21779
63310200,21782
63316432,21784
63321877,21779
63328088,21781
63334335,21785
63345080,21764
63351293,21766
63357519,21764
63363773,21763
63370005,21767
63376208,21768
63382448,21767
63388692,21766
63394895,21760
63400386,21766
63406597,21762
63412786,21763
63419027,21759
63425257,21764
63431475,21766
63437717,21765
63443955,21765
63450222,21764
63456420,21759
63462654,21751
63468833,21753
63479568,21744
63485794,21742
63492030,21746
63498826,21745
63505097,21738
63511355,21745
63517577,21742
63523805,21740
63530019,21742
63535474,21735
63541668,21744
63547866,21739
63554102,21735
63560362,21741
63566587,21739
63572819,21738
63579057,21739
63585305,21739
63591472,21734
63596713,21733
63602930,21736
63609131,21739
63614621,21753
63620845,21753
63627059,21746
63633294,21750
63639505,21751
63645737,21750
63651967,21759
63658199,21754
63664353,21755
63669681,21755
63675913,21753
63682140,21751
63688329,21757
63694592,21757
63700836,21756
63707077,21755
63713968,21759
63720199,21755
63726400,21754
63731899,21758
63738117,21755
63748830,21749
63755042,21755
63761255,21754
63767509,21759
63773750,21754
63779959,21751
63786175,21757
63792380,21754
63798608,21753
63804079,21748
63810263,21749
63816453,21749
63822680,21750
63828902,21756
63835150,21746
63841415,21748
63847638,21752
63853895,21743
63860159,21753
63865393,21747
63871670,21750
63877912,21747
63883399,21749
63889673,21748
63895879,21750
63902117,21741
63908376,21745
63914610,21749
63920750,21743
63927704,21746
63933914,21750
63939155,21742
63945359,21743
63951655,21750
63957937,21740
63964171,21744
63970384,21743
63976660,21743
63982875,21743
63989107,21740
63995315,21742
64000758,21735
64006944,21733
64013151,21736
64024591,21733
64030750,21742
64036915,21744
64043154,21736
64049367,21734
64055574,21739
64061748,21734
64067903,21729
64073366,21737
64079551,21736
64085769,21740
64091982,21733
64098213,21733
64104467,21735
64110741,21742
64116923,21731
64123140,21738
64129347,21733
64135481,21734
64141710,21737
64147920,21732
64158547,21734
64164756,21724
64170969,21738
64177189,21729
64183388,21730
64189589,21735
64195734,21729
64208557,21729
64214779,21730
64220955,21729
64227129,21728
64233361,21730
64239556,21733
64245790,21728
64251997,21734
64258236,21731
64263464,21723
64269709,21729
64275957,21732
64286930,21716
64293101,21705
64299271,21710
64305468,21712
64311697,21705
64317918,21707
64324156,21711
64330398,21710
64336569,21707
64341784,21705
64348005,21707
64354777,21709
64360949,21711
64367133,21705
64373287,21708
64379440,21705
64385622,21712
64391808,21704
64397997,21704
64404195,21694
64410382,21695
64421345,21648
64427554,21652
64433775,21648
64439956,21653
64446171,21650
64452375,21657
64458559,21664
64464729,21658
64470891,21657
64477065,21661
64483252,21663
64489411,21658
64495599,21668
64501777,21668
64507982,21671
64514203,21667
64520421,21667
64526671,21670
64532863,21676
64538073,21669
64544285,21675
64550446,21676
64556641,21665
64563453,21654
64569679,21655
64575855,21660
64582135,21661
64588385,21654
64594602,21660
64600785,21660
64606980,21655
64613188,21663
64618607,21665
64624784,21654
64630989,21660
64637185,21657
64643378,21657
64649601,21657
64655825,21660
64662012,21658
64668196,21662
64673407,21659
64679603,21655
64685764,21653
64696437,21669
64702657,21664
64708814,21658
64715021,21663
64721223,21658
64727417,21659
64733603,21664
64739782,21662
64745941,21665
64751407,21659
64757595,21664
64763778,21661
64769980,21662
64776830,21663
64783048,21665
64789278,21666
64795464,21654
64801661,21667
64806896,21658
64813100,21662
64819293,21661
64824712,21661
64830919,21665
64837104,21664
64843280,21664
64849473,21662
64855723,21665
64861916,21660
64868098,21660
64874285,21661
64880439,21664
64885670,21666
64891850,21664
64898053,21660
64904226,21666
64910453,21662
64916705,21670
64922929,21665
64929125,21662
64935331,21663
64941578,21674
64947748,21666
64953891,21669
64959359,21665
64970703,21646
64976872,21646
64983732,21641
64990013,21641
64996191,21643
65002400,21643
65008575,21644
65014760,21639
65020181,21637
65026337,21641
65032536,21642
65038758,21644
65044977,21640
65051193,21643
65057375,21639
65063564,21639
65069804,21638
65075995,21633
65081207,21632
65087396,21634
65093585,21633
65105219,21622
65111439,21629
65117621,21626
65123827,21622
65130041,21625
65136228,21628
65142429,21625
65148689,21624
65154884,21625
65161038,21618
65167223,21629
65173437,21618
65179662,21625
65185822,21618
65192034,21619
65198886,21617
65205078,21627
65211279,21621
65216473,21621
65222657,21620
65228831,21622
65239476,21604
65245702,21609
65251862,21610
65258092,21609
65264280,21615
65270472,21604
65276671,21612
65282804,21613
65288941,21605
65295141,21610
65301357,21604
65307570,21606
65313744,21605
65319956,21610
65326213,21611
65332429,21605
65338668,21608
65344813,21608
65350276,21606
65356454,21603
65362677,21606
65367892,21603
65374128,21607
65380351,21600
65386529,21605
65392738,21609
65398894,21606
65405736,21600
65411937,21608
65418141,21603
65424329,21609
65429780,21602
65436003,21609
65442183,21610
65455006,21610
65461214,21610
65467495,21613
65473701,21611
65479886,21613
65486115,21613
65492344,21606
65497776,21607
65509234,21608
65515478,21606
65521653,21604
65527837,21610
65534062,21601
65540274,21604
65546440,21606
65552666,21604
65558116,21607
65564287,21601
65570425,21604
65576636,21604
65582839,21604
65589053,21605
65595269,21606
65601457,21611
65607696,21608
65613924,21605
65620098,21602
65626961,21607
65632160,21608
65643902,21586
65650124,21595
65656297,21590
65662468,21585
65668667,21589
65674848,21585
65681047,21589
65687259,21593
65692699,21582
65698866,21583
65705078,21588
65711268,21585
65717485,21592
65723697,21585
65729930,21584
65736100,21589
65742257,21584
65748411,21586
65753706,21586
65759899,21590
65766118,21584
65777918,21585
65784153,21580
65790413,21582
65796683,21585
65802935,21593
65809129,21583
65815316,21583
65821530,21588
65827761,21584
65834698,21591
65840903,21588
65847149,21582
65853373,21584
65859606,21586
65865841,21587
65872073,21584
65878280,21585
65884486,21579
65890001,21587
65896246,21587
65901508,21580
65913287,21576
65919534,21581
65925758,21579
65931985,21577
65938240,21581
65944464,21578
65950690,21579
65956853,21577
65963057,21576
65968300,21580
65974535,21577
65980772,21578
65987021,21580
65993237,21578
65999462,21573
66005674,21574
66011889,21573
66018120,21575
66023567,21574
66029784,21574
66034993,21573
66047350,21570
66053585,21566
66059818,21564
66066043,21565
66072297,21564
66078549,21572
66084772,21566
66090949,21568
66097199,21566
66102432,21563
66108649,21566
66114880,21570
66121153,21571
66127376,21567
66133676,21566
66139903,21567
66146109,21566
66152308,21564
66157790,21559
66164030,21565
66169263,21562
66180964,21563
66187196,21565
66193461,21567
66199706,21567
66205923,21567
66212104,21567
66218349,21568
66224587,21573
66230815,21568
66236061,21566
66242275,21571
66248522,21567
66254803,21561
66261680,21566
66267937,21562
66274168,21561
66280421,21562
66286649,21563
66292145,21560
66298372,21561
66303613,21564
66309832,21562
66316049,21555
66322238,21547
66328479,21545
66334755,21545
66340978,21549
66347220,21547
66353455,21535
66359664,21544
66365902,21549
66371386,21539
66377618,21541
66383836,21546
66390083,21542
66396343,21537
66402605,21540
66408821,21545
66415016,21537
66421260,21538
66426451,21537
66432710,21543
66438206,21541
66444487,21536
66450714,21541
66456950,21539
66463198,21541
66469456,21535
66476366,21538
66482604,21538
66488814,21530
66495067,21537
66501294,21540
66506535,21528
66512775,21530
66519017,21535
66525234,21537
66531416,21528
66537645,21534
66543815,21537
66549995,21530
66556232,21530
66561702,21535
66567903,21531
66573121,21534
66579330,21532
66591088,21524
66597372,21512
66603629,21519
66609886,21517
66616118,21514
66622336,21519
66628583,21517
66634821,21520
66640038,21523
66646238,21518
66652471,21510
66658725,21517
66664998,21515
66671216,21516
66677425,21521
66684230,21511
66690473,21503
66695926,21512
66708729,21513
66720228,21513
66726456,21511
66732705,21511
66738909,21510
66745128,21506
66751356,21512
66757514,21515
66763687,21520
66769121,21525
66775359,21515
66781506,21524
66787741,21522
66793970,21514
66800185,21514
66806422,21511
66812663,21511
66818856,21519
66825031,21519
66831232,21515
66837416,21519
66842658,21518
66854337,21499
66860575,21498
66866772,21497
66872961,21501
66879184,21498
66885431,21498
66891635,21495
66897848,21501
66904720,21490
66910954,21484
66917195,21495
66923408,21497
66929576,21500
66935814,21499
66941995,21499
66948202,21502
66954417,21499
66960599,21490
66965806,21496
66972036,21488
66977454,21494
66988866,21482
66995060,21470
67001258,21478
67007469,21476
67013656,21475
67019854,21473
67026081,21477
67032281,21473
67038526,21470
67043974,21475
67050155,21472
67056340,21469
67062530,21469
67068775,21471
67074979,21474
67081167,21471
67087339,21475
67093505,21476
67099701,21471
67105871,21470
67111106,21466
67123367,21455
67129596,21457
67135789,21450
67142008,21449
67148215,21449
67154419,21453
67160643,21451
67166815,21451
67173015,21456
67178185,21450
67184420,21449
67190655,21450
67196854,21447
67203080,21441
67209330,21446
67215530,21444
67221718,21444
67227876,21453
67234081,21451
67240280,21450
67245754,21447
67257184,21436
67263402,21434
67269627,21434
67275838,21435
67282045,21434
67288258,21432
67294441,21440
67300605,21439
67306754,21431
67312181,21432
67318398,21440
67324633,21432
67331469,21436
67337696,21434
67343867,21430
67350057,21434
67356243,21431
67362451,21434
67368632,21436
67373828,21429
67379259,21425
67385466,21425
67391686,21425
67397920,21424
67404122,21420
67410296,21429
67416448,21423
67422694,21427
67428882,21426
67435086,21435
67441322,21434
67446556,21431
67452769,21424
67458922,21435
67465129,21425
67471354,21431
67477540,21425
67483729,21432
67489895,21428
67496140,21429
67502326,21434
67507719,21426
67513240,21430
67519425,21430
67525608,21422
67531823,21425
67538705,21426
67544930,21421
67551138,21425
67557322,21426
67563471,21431
67569701,21419
67575911,21422
67581151,21428
67587359,21431
67593564,21420
67599772,21422
67605966,21423
67612191,21421
67618374,21428
67624551,21425
67630736,21416
67636911,21425
67642377,21430
67647896,21426
67654092,21430
67660269,21425
67671676,21430
67677848,21423
67684056,21431
67690258,21423
67696424,21423
67702600,21427
67708789,21421
67714961,21422
67720451,21424
67726662,21419
67732867,21427
67739062,21418
67745268,21422
67752033,21418
67758179,21425
67764342,21424
67770522,21424
67776728,21427
67781174,21423
67787344,21422
67793525,21422
67799744,21424
67805972,21417
67812152,21415
67818375,21413
67824571,21416
67830770,21413
67836983,21410
67843137,21409
67849350,21410
67854593,21411
67860812,21408
67867014,21409
67873230,21409
67879451,21414
67885712,21415
67891882,21410
67898127,21410
67904308,21415
67910520,21409
67916027,21411
67922217,21408
67928399,21413
67934647,21409
67952979,21399
67959208,21404
67966123,21395
67972354,21395
67978538,21404
67983802,21397
67990022,21395
67996274,21400
68002527,21393
68008735,21398
68014958,21400
68021213,21396
68027437,21396
68033677,21397
68039866,21394
68045344,21394
68051593,21397
68057786,21399
68063985,21392
68075444,21376
68081633,21380
68087812,21372
68094029,21377
68100233,21370
68106425,21376
68112644,21373
68118080,21373
68124274,21372
68130474,21367
68136691,21373
68142867,21364
68149026,21364
68155225,21365
68161415,21363
68167631,21364
68173809,21365
68180060,21361
68185267,21364
68191469,21355
68197706,21359
68209355,21367
68215522,21370
68221768,21365
68227979,21367
68234181,21372
68240342,21367
68246494,21372
68251715,21366
68257884,21368
68264059,21369
68270225,21365
68276388,21379
68282592,21366
68288769,21369
68295011,21372
68301229,21374
68307413,21369
68312841,21372
68319004,21372
68324214,21373
68330396,21374
68336608,21375
68348264,21370
68354459,21372
68360717,21370
68366937,21373
68373117,21369
68379312,21366
68385480,21370
68392299,21377
68398510,21371
68404758,21362
68410944,21367
68417142,21362
68423359,21363
68429521,21356
68435739,21364
68441946,21358
68447150,21362
68453313,21367
68458752,21357
68464972,21359
68471158,21363
68482563,21337
68488762,21331
68494924,21330
68501111,21333
68507310,21335
68513501,21332
68519744,21333
68525971,21334
68532193,21337
68538411,21338
68544613,21334
68550809,21333
68557026,21332
68563258,21335
68569439,21338
68575605,21335
68581802,21341
68587935,21332
68594171,21334
68601058,21332
68612760,21356
68618894,21352
68625167,21357
68631356,21358
68637571,21356
68643784,21359
68649964,21348
68656148,21358
68662336,21361
68668481,21359
68674703,21364
68680899,21355
68687051,21361
68693232,21361
68699402,21364
68705604,21364
68711766,21361
68717960,21362
68723143,21361
68728621,21369
68734875,21366
68741097,21363
68747291,21344
68753494,21344
68759705,21352
68765887,21347
68772070,21348
68778215,21352
68784443,21355
68790633,21355
68796831,21355
68802084,21353
68808947,21351
68815213,21354
68821425,21353
68827638,21359
68833786,21355
68840038,21357
68846209,21360
68852396,21357
68857818,21361
68863345,21363
68869519,21360
68875720,21360
68887187,21362
68893447,21371
68899630,21373
68905818,21368
68912033,21361
68918268,21367
68924466,21367
68930632,21365
68936820,21373
68943027,21363
68949253,21370
68955446,21368
68961659,21368
68967810,21365
68974045,21366
68980192,21364
68986407,21357
68991825,21365
68997381,21369
69003583,21366
69009760,21363
69021844,21354
69028054,21356
69034242,21353
69040413,21358
69046597,21358
69052800,21360
69059020,21361
69065250,21356
69071477,21356
69076907,21357
69083059,21353
69089271,21356
69095453,21354
69101647,21355
69107833,21353
69114010,21356
69120171,21348
69125368,21352
69131587,21355
69137792,21355
69144027,21353
69150248,21346
69156439,21345
69162640,21344
69168832,21345
69175057,21342
69181261,21341
69187447,21339
69200527,21345
69205771,21340
69212083,21343
69218365,21335
69224631,21346
69230843,21343
69237755,21343
69244007,21339
69250255,21339
69255739,21340
69261859,21340
69266953,21336
69273273,21350
69279562,21335
69291318,21323
69297536,21324
69303788,21326
69310010,21324
69316202,21323
69322407,21324
69328641,21314
69334847,21320
69341095,21317
69347358,21316
69353570,21314
69359819,21313
69366048,21313
69372220,21308
69378427,21316
69384636,21315
69389857,21317
69396091,21311
69401525,21309
69407775,21308
69414049,21309
69425515,21289
69431772,21290
69438017,21287
69444255,21289
69451137,21289
69457379,21287
69463610,21292
69469835,21281
69476047,21287
69481539,21282
69487712,21281
69493962,21290
69500173,21284
69506384,21287
69512592,21279
69518819,21289
69524374,21289
69530589,21283
69535823,21292
69542039,21279
69548258,21282
69559931,21296
69566127,21299
69572347,21301
69578516,21301
69584756,21305
69590961,21306
69597192,21298
69603419,21303
69609684,21301
69614948,21298
69621172,21305
69627387,21295
69633647,21313
69639837,21304
69646070,21303
69652274,21305
69659086,21305
69665332,21297
69670828,21302
69676979,21304
69683161,21306
69694653,21303
69700897,21301
69707125,21302
69713348,21293
69719555,21300
69725793,21298
69732008,21298
69738240,21301
69744396,21298
69749839,21290
69756034,21294
69762278,21299
69768513,21299
69774725,21295
69780964,21299
69787169,21302
69793432,21296
69798640,21301
69804063,21297
69810259,21305
69816494,21300
69822732,21294
69828956,21308
69835182,21303
69841412,21303
69847650,21302
69853818,21299
69860105,21303
69866329,21301
69873193,21300
69879438,21301
69884654,21306
69890879,21303
69897105,21310
69903335,21305
69909535,21300
69915763,21307
69921974,21309
69928207,21307
69933682,21311
69939185,21307
69945457,21302
69951688,21308
69957889,21304
69969344,21300
69975620,21298
69981853,21295
69988079,21300
69994271,21298
70000457,21296
70006702,21300
70012948,21298
70018416,21295
70024687,21301
70030894,21299
70037124,21301
70043350,21297
70049523,21299
70055801,21296
70062018,21298
70067251,21298
70072730,21300
70078944,21295
70085815,21299
70092057,21296
70103526,21303
70109771,21306
70116011,21305
70122249,21303
70128441,21307
70134663,21300
70140911,21305
70147141,21305
70153347,21303
70159582,21308
70165829,21305
70172051,21305
70178269,21303
70184520,21306
70190763,21307
70196981,21305
70202459,21306
70208017,21304
70214312,21302
70220566,21305
70226794,21307
70238276,21296
70244499,21294
70250731,21297
70256945,21295
70263179,21298
70269380,21290
70275650,21293
70281887,21297
70288164,21298
70293648,21289
70300521,21295
70306743,21296
70312961,21292
70319139,21291
70325335,21298
70331492,21294
70336711,21292
70342134,21293
70348337,21292
70354577,21302
70360782,21297
70372234,21299
70378435,21293
70384647,21298
70390817,21297
70396994,21300
70403182,21303
70409354,21300
70415575,21301
70421770,21301
70427165,21309
70433364,21301
70439583,21303
70452384,21310
70458632,21303
70464905,21303
70469708,21303
70475929,21308
70482096,21307
70488304,21306
70494513,21306
70505974,21321
70512199,21322
70518966,21323
70525197,21319
70531400,21324
70537584,21321
70543778,21326
70550017,21327
70556268,21326
70562495,21325
70568687,21330
70574870,21324
70581081,21328
70587326,21329
70593455,21319
70599687,21328
70604464,21328
70610687,21328
70616871,21327
70623075,21328
70629239,21328
70635423,21312
70641651,21305
70647845,21311
70654017,21310
70660190,21315
70666366,21310
70672552,21312
70678744,21311
70684989,21308
70691209,21306
70696440,21306
70702679,21310
70708871,21305
70715073,21312
70721261,21311
70728046,21307
70734271,21309
70739065,21310
70745248,21313
70751463,21310
70757658,21308
70763854,21309
70775227,21303
70781446,21298
70787621,21301
70793782,21302
70799984,21303
70806208,21299
70812368,21305
70818506,21303
70824743,21297
70830939,21295
70837172,21298
70843358,21297
70849604,21297
70855820,21297
70861962,21298
70868162,21290
70872953,21295
70879110,21296
70885334,21296
70891517,21285
70897796,21294
70904019,21294
70910227,21301
70916428,21302
70922635,21303
70928844,21307
70935702,21304
70941902,21308
70948168,21307
70954381,21310
70960612,21306
70966844,21308
70972098,21303
70978279,21306
70984511,21307
70990759,21311
70996898,21302
71003126,21311
71007890,21305
71014093,21311
71020282,21309
71026467,21310
71032683,21316
71038860,21313
71050232,21326
71056423,21327
71062571,21328
71068746,21329
71074935,21333
71081157,21332
71087381,21328
71093598,21335
71099783,21330
71105212,21330
71111402,21333
71117659,21333
71123859,21338
71130024,21332
71136211,21331
71141414,21330
71147462,21334
71153657,21338
71159864,21336
71166059,21339
71172246,21338
71178470,21330
71184689,21342
71190894,21338
71197109,21335
71203321,21336
71209505,21334
71215689,21337
71221869,21336
71228078,21344
71234251,21337
71239659,21336
71245857,21337
71252019,21330
71258173,21336
71264402,21332
71270611,21334
71275826,21334
71281247,21336
71287457,21328
71293690,21331
71299889,21332
71306085,21333
71312264,21330
71318483,21327
71324652,21333
71330815,21333
71337001,21328
71343188,21331
71349384,21331
71356182,21329
71362407,21331
71368630,21336
71373842,21337
71380040,21332
71386242,21328
71392406,21333
71398652,21334
71404858,21334
71410305,21338
71415853,21337
71422039,21331
71428227,21330
71434431,21339
71440652,21334
71446846,21332
71458261,21326
71464512,21328
71470712,21327
71476906,21323
71483139,21329
71489343,21329
71495567,21324
71501764,21323
71507975,21325
71513431,21319
71519624,21323
71525836,21326
71532032,21323
71538211,21328
71544413,21320
71548835,21324
71555025,21327
71561191,21324
71567986,21325
71574152,21328
71580353,21322
71586515,21327
71592733,21320
71598904,21314
71605110,21323
71611265,21322
71617448,21319
71623671,21322
71629817,21324
71636025,21322
71642194,21313
71647436,21321
71653644,21319
71659823,21319
71665969,21322
71672173,21320
71678392,21318
71683208,21326
71689448,21316
71702255,21321
71708466,21320
71714765,21318
71720981,21317
71727208,21307
71733384,21304
71739547,21308
71745741,21310
71751953,21309
71758204,21310
71764505,21305
71770764,21302
71775992,21304
71782842,21305
71789131,21305
71795375,21303
71801644,21300
71807868,21302
71812734,21303
71818936,21303
71825175,21299
71831431,21303
71837655,21296
71843894,21304
71850126,21294
71856353,21296
71867835,21288
71874037,21276
71880255,21283
71886465,21290
71892719,21285
71898937,21277
71905168,21282
71910652,21276
71916924,21282
71923178,21282
71929451,21274
71935701,21284
71941922,21272
71946402,21277
71952638,21270
71958849,21275
71965106,21274
71971309,21272
71977536,21272
71983759,21270
71989928,21272
72002052,21266
72008281,21259
72014491,21257
72020715,21258
72026937,21260
72033191,21264
72039448,21257
72044950,21266
72051201,21258
72057436,21265
72063654,21256
72069906,21261
72076143,21260
72080634,21259
72086843,21256
72093028,21258
72099187,21260
72105363,21269
72111553,21258
72117778,21257
72123979,21257
72130198,21258
72136399,21230
72142616,21228
72148837,21228
72155033,21220
72161207,21225
72167471,21224
72173678,21226
72178922,21228
72185122,21215
72191312,21216
72197532,21231
72203742,21227
72210593,21225
72215397,21223
72221657,21230
72227865,21224
72234077,21229
72240276,21218
72246478,21225
72252697,21225
72258880,21226
72265054,21225
72276449,21192
72282651,21195
72288838,21188
72295036,21185
72301225,21189
72307427,21190
72313649,21188
72319882,21190
72326135,21188
72332329,21185
72338558,21187
72344743,21181
72349522,21185
72355744,21185
72361943,21185
72368144,21185
72374324,21179
72380543,21183
72386760,21183
72392958,21180
72399162,21183
72410518,21180
72416797,21177
72423605,21179
72429874,21182
72436119,21180
72442348,21181
72448627,21182
72454156,21174
72460448,21182
72466705,21181
72472923,21176
72479155,21178
72483628,21177
72489859,21174
72496068,21177
72502274,21180
72508513,21179
72514722,21172
72520961,21178
72527237,21175
72533477,21177
72544930,21177
72551160,21179
72557333,21171
72563537,21175
72569760,21178
72576025,21171
72582274,21177
72587831,21170
72594058,21169
72600305,21172
72606493,21169
72612734,21168
72618174,21168
72624393,21175
72631188,21170
72637425,21170
72643698,21172
72649924,21172
72656147,21174
72662413,21169
72668644,21172
72680022,21170
72686265,21172
72692488,21173
72698753,21171
72704960,21172
72711213,21173
72717434,21167
72722896,21171
72729126,21169
72735347,21163
72741579,21169
72747805,21166
72753037,21166
72758508,21171
72764751,21168
72770950,21171
72777200,21166
72783414,21169
72789645,21167
72795898,21167
72802111,21168
72813629,21153
72819858,21153
72826116,21152
72832342,21151
72838572,21149
72845370,21150
72851583,21147
72857101,21149
72863355,21154
72869539,21148
72875763,21143
72881973,21145
72887197,21148
72892683,21145
72898877,21147
72905048,21143
72911296,21139
72917516,21140
72923758,21141
72929971,21147
72936176,21144
72942354,21132
72955198,21148
72961421,21141
72967680,21144
72973892,21146
72980120,21146
72986344,21140
72992603,21142
72998835,21144
73005066,21134
73011283,21139
73016773,21143
73021944,21152
73028126,21141
73034311,21141
73040504,21141
73046708,21135
73052924,21141
73059743,21146
73065994,21143
73072208,21145
73083971,21133
73090183,21127
73096400,21140
73102572,21134
73108809,21133
73115035,21140
73121276,21136
73126737,21134
73132937,21129
73139160,21131
73145367,21135
73150583,21139
73156000,21136
73162159,21134
73168355,21130
73174550,21132
73180778,21133
73186965,21136
73193159,21134
73199359,21126
73205544,21129
73211743,21138
73217974,21134
73224114,21132
73230352,21136
73236521,21137
73242743,21134
73248948,21137
73255181,21134
73260393,21135
73266645,21132
73273421,21137
73279562,21138
73284986,21140
73291181,21143
73297357,21143
73303539,21137
73309749,21135
73315958,21139
73322138,21134
73328333,21141
73334488,21134
73340712,21135
73346941,21140
73358250,21140
73364439,21141
73370607,21136
73376830,21145
73383045,21139
73389315,21144
73394848,21145
73401074,21147
73407273,21143
73413489,21141
73419743,21140
73425190,21138
73431356,21142
73437564,21144
73443764,21145
73449963,21140
73456110,21138
73462322,21139
73468523,21150
73474747,21146
73481587,21147
73492982,21144
73499172,21146
73505373,21148
73511543,21141
73517787,21138
73523964,21144
73529462,21142
73535683,21142
73541905,21147
73548108,21138
73554297,21142
73559522,21144
73565724,21141
73571889,21146
73578087,21148
73584306,21145
73590498,21146
73596704,21147
73602854,21141
73609064,21144
73615256,21145
73626895,21137
73633082,21144
73639259,21140
73645479,21145
73651731,21142
73657973,21140
73664182,21147
73670368,21145
73676547,21141
73682747,21137
73688919,21138
73695074,21132
73700261,21139
73706408,21141
73712584,21146
73718807,21137
73725009,21139
73731210,21142
73737399,21136
73743605,21133
73749783,21138
73761396,21118
73767553,21110
73773793,21116
73780015,21108
73786200,21111
73792418,21113
73798668,21111
73803855,21117
73810055,21111
73816230,21111
73822430,21117
73827881,21114
73834089,21113
73840267,21106
73846458,21111
73852681,21116
73858898,21115
73865156,21113
73871400,21106
73877564,21109
73883798,21114
73895190,21098
73902015,21103
73908257,21104
73914462,21104
73920672,21096
73926861,21095
73933061,21099
73938535,21098
73944751,21095
73950930,21097
73957114,21096
73962323,21096
73968523,21100
73973957,21096
73980141,21097
73986362,21099
73992541,21091
73998779,21098
74005011,21095
74011207,21095
74017417,21096
74023636,21093
74029824,21089
74036019,21091
74042192,21086
74048385,21090
74054563,21087
74060764,21090
74066975,21095
74073148,21087
74079337,21088
74085525,21086
74091758,21091
74096955,21093
74103179,21088
74108630,21090
74115502,21096
74121745,21088
74127928,21098
74134137,21092
74140325,21094
74146478,21091
74152697,21088
74158877,21090
74170240,21093
74176467,21092
74182678,21084
74188873,21095
74201932,21094
74208121,21092
74214360,21087
74220550,21086
74225776,21086
74231967,21097
74237485,21093
74243706,21089
74249911,21092
74256144,21092
74262346,21087
74268507,21098
74274758,21090
74280947,21099
74287084,21088
74298475,21093
74304690,21093
74310867,21091
74317087,21090
74323277,21086
74330146,21091
74336431,21090
74341874,21093
74348051,21088
74354215,21090
74360409,21090
74366578,21086
74372785,21089
74378952,21086
74385158,21086
74391338,21089
74397543,21091
74403786,21092
74409947,21088
74416115,21092
74422278,21086
74433663,21093
74439840,21090
74445984,21090
74452183,21089
74458396,21092
74464574,21091
74470769,21086
74476951,21091
74483177,21096
74489381,21086
74495585,21092
74501026,21094
74507205,21091
74513398,21086
74519623,21081
74525830,21093
74532078,21084
74538266,21085
74545033,21089
74551224,21084
74557416,21092
74568823,21073
74575014,21075
74581228,21070
74587470,21073
74593669,21067
74599829,21069
74606034,21068
74612263,21065
74617827,21068
74624006,21070
74630194,21067
74635665,21072
74641839,21067
74647397,21061
74653591,21064
74659805,21061
74665989,21061
74672175,21067
74678358,21057
74684544,21066
74690764,21058
74702164,21061
74708306,21058
74714462,21062
74720702,21064
74726915,21067
74733124,21060
74739318,21062
74745510,21060
74751509,21063
74757753,21063
74763979,21061
74769483,21062
74775685,21061
74780883,21057
74787068,21054
74793298,21059
74799524,21058
74805702,21062
74811884,21059
74818068,21062
74824254,21062
74830461,21061
74836677,21049
74842840,21053
74849056,21050
74855283,21054
74861498,21049
74867712,21052
74873886,21052
74880053,21047
74885522,21048
74891705,21052
74897921,21047
74903105,21047
74909340,21053
74915547,21047
74921761,21050
74927935,21049
74934174,21046
74940361,21046
74946547,21054
74952744,21047
74958967,21046
74965737,21047
74977362,21051
74983558,21048
74989806,21054
74996039,21050
75002232,21045
75008394,21051
75014565,21045
75019808,21047
75026032,21048
75032200,21045
75037672,21049
75043869,21045
75050070,21048
75055272,21047
75061482,21046
75067669,21048
75073864,21048
75080103,21041
75086285,21047
75092460,21040
75098643,21046
75104809,21048
75110963,21049
75117185,21047
75123340,21048
75129543,21054
75135736,21045
75141927,21045
75148116,21044
75153529,21044
75159764,21055
75165955,21048
75172775,21056
75179000,21047
75185168,21049
75190402,21045
75196608,21045
75202827,21051
75209004,21049
75215235,21048
75221435,21045
75227606,21049
75233815,21039
75240029,21047
75251759,21045
75257978,21037
75264166,21044
75270367,21043
75276544,21039
75282747,21045
75287937,21046
75294131,21042
75300300,21045
75306471,21040
75311951,21036
75318193,21042
75324398,21038
75330563,21044
75336817,21039
75343019,21040
75349198,21036
75355407,21042
75361571,21035
75367813,21045
75374009,21046
75386413,21037
75392643,21028
75398831,21026
75405077,21025
75411275,21033
75417487,21024
75422701,21024
75428884,21028
75435059,21023
75447808,21031
75454034,21023
75459499,21021
75465762,21021
75472016,21020
75478182,21021
75484383,21019
75490543,21019
75496776,21017
75502959,21018
75514331,21009
75520503,21008
75526695,21009
75532908,21011
75539164,21006
75545368,21011
75550795,21012
75557015,21017
75563231,21011
75569393,21006
75575589,21014
75580802,21018
75586979,21015
75593181,21014
75599954,21015
75606214,21010
75612410,21014
75618696,21008
75624882,21013
75631048,21012
75637254,21006
75643438,21005
75649610,21003
75655847,21000
75661992,21006
75668196,21006
75674386,21006
75680569,21000
75686038,21000
75692212,21007
75698407,21003
75704579,21004
75710795,21010
75715969,21001
75722210,21002
75728442,21009
75733911,21003
75740096,21006
75746290,21005
75752522,21006
75758769,21006
75764948,21007
75771148,21007
75777308,21003
75788754,21000
75794941,21001
75801183,21006
75807401,21003
75814274,21004
75819854,21000
75826065,20994
75832276,21002
75838466,20997
75844669,20999
75850141,20996
75856351,21003
75862565,21009
75867791,21008
75874012,21002
75880234,20998
75886477,20999
75892672,20994
75898846,21006
75905048,21002
75911280,21001
75917483,21009
75923658,21000
75929883,21002
75936081,21006
75942300,20997
75948520,21002
75953963,21006
75960159,21001
75966377,21002
75972557,21002
75978776,21004
75983996,20999
75990187,21000
75996423,21007
76001851,21003
76008006,21004
76014226,21001
76020443,21009
76027317,21007
76033536,21008
76039757,21008
76045923,21007
76052143,21005
76063544,21005
76069775,21006
76075978,21007
76082200,21011
76088406,21008
76094604,21006
76100810,21013
76106991,21002
76113216,21012
76118687,21005
76124899,21004
76131096,21006
76136344,21009
76142541,21007
76148742,21005
76154937,21007
76161147,21006
76167356,21003
76173529,21009
76179756,21008
76185987,21007
76197666,21004
76203898,20999
76210124,21005
76216306,21003
76222502,21006
76228694,21001
76235468,21001
76241668,21000
76247875,21000
76253069,20997
76259293,20995
76265495,20997
76270928,20998
76277138,20996
76283303,20993
76289473,21000
76295699,20998
76301884,20998
76308072,20992
76314245,20999
76320452,20998
76331817,20981
76338025,20971
76344232,20971
76350478,20977
76356685,20976
76362847,20977
76369020,20973
76375242,20973
76381448,20972
76386867,20976
76393073,20977
76399264,20966
76405467,20975
76411669,20979
76417874,20975
76424051,20976
76430235,20979
76436420,20984
76442637,20976
76449447,20979
76455720,20978
76467189,20973
76473378,20978
76479540,20979
76485759,20977
76491913,20973
76498099,20977
76503535,20977
76509691,20977
76515881,20972
76521079,20976
76527300,20976
76533539,20972
76539750,20977
76545183,20971
76551350,20974
76557539,20978
76563734,20975
76569908,20977
76576108,20975
76582298,20973
76588530,20976
76594781,20969
76601011,20970
76607188,20966
76613383,20970
76619549,20973
76625778,20965
76631995,20969
76637206,20970
76643388,20965
76649576,20967
76656429,20967
76662650,20967
76668855,20976
76675043,20968
76680520,20970
76686794,20971
76699576,20970
76705794,20971
76712088,20972
76718352,20969
76724559,20977
76736215,20964
76742441,20971
76748657,20972
76754900,20968
76761153,20961
76766371,20972
76772564,20967
76778748,20977
76784951,20969
76790436,20974
76796607,20974
76802816,20972
76808997,20973
76815204,20967
76821400,20970
76827579,20966
76833833,20968
76840023,20972
76846237,20972
76852427,20967
76858641,20968
76870099,20966
76876953,20965
76883155,20966
76889359,20969
76895530,20965
76900997,20965
76907173,20961
76913387,20965
76919551,20966
76924760,20966
76930950,20961
76937119,20962
76943321,20966
76948791,20965
76955001,20967
76961169,20964
76967342,20964
76973482,20963
76979697,20965
76985922,20971
76992106,20968
76998271,20964
77004492,20968
77010628,20962
77016905,20969
77023092,20967
77029244,20970
77035474,20970
77041669,20968
77047869,20968
77054055,20972
77059236,20965
77065455,20962
77071622,20970
77077788,20963
77083875,20971
77090129,20961
77096346,20969
77102528,20968
77108714,20963
77114913,20966
77121116,20970
77127315,20966
77133501,20961
77145124,20951
77151315,20948
77157498,20948
77163735,20946
77169944,20942
77175190,20950
77181362,20947
77187592,20944
77193052,20950
77199225,20951
77205472,20946
77211658,20946
77217837,20943
77224005,20945
77230217,20945
77236388,20938
77242555,20943
77248779,20945
77254936,20945
77261103,20947
77267300,20946
77278764,20944
77284972,20954
77291222,20945
77298079,20941
77304304,20940
77309732,20950
77315957,20948
77322165,20941
77327347,20944
77333555,20945
77339817,20943
77346012,20945
77352211,20944
77357665,20941
77363846,20938
77370092,20942
77376268,20942
77382441,20940
77388605,20942
77394802,20939
77401014,20939
77407191,20943
77413401,20939
77419570,20945
77425791,20936
77431960,20940
77438155,20937
77444375,20938
77450561,20939
77456772,20936
77461995,20940
77468241,20936
77474470,20942
77480679,20941
77486858,20945
77492278,20941
77498460,20944
77504651,20938
77511465,20937
77517666,20943
77523862,20940
77530053,20935
77536236,20935
77542430,20937
77553889,20938
77560090,20939
77566302,20938
77572487,20933
77578685,20938
77584136,20939
77590292,20945
77596461,20943
77602731,20941
77608894,20935
77615101,20940
77621339,20944
77626515,20940
77632690,20938
77638872,20947
77645018,20939
77651211,20933
77657385,20935
77663575,20942
77669831,20938
77675986,20940
77687695,20937
77693848,20939
77700036,20933
77706205,20940
77712394,20940
77719180,20936
77725392,20937
77731592,20934
77736808,20938
77743006,20941
77749204,20940
77755400,20937
77761591,20933
77767790,20938
77773936,20937
77780169,20933
77786400,20936
77792636,20941
77798880,20935
77805087,20942
77811317,20940
77822944,20928
77829147,20927
77835288,20926
77841454,20932
77847614,20928
77853821,20923
77859011,20930
77865213,20929
77870703,20928
77876914,20925
77883092,20925
77889274,20922
77895488,20926
77900680,20921
77906893,20924
77913091,20920
77919288,20924
77925495,20925
77932379,20925
77945415,20924
77951689,20896
77957955,20898
77964158,20898
77970368,20890
77976543,20899
77982747,20894
77987950,20896
77994195,20896
77999672,20888
78005879,20892
78012115,20887
78018377,20891
78024613,20886
78030791,20885
78036960,20888
78043134,20892
78049249,20890
78055440,20886
78061617,20894
78067813,20897
78074067,20892
78080306,20893
78091751,20895
78097918,20885
78104135,20884
78110297,20889
78116484,20886
78121898,20892
78128091,20887
78134253,20898
78140509,20892
78147407,20888
78153593,20889
78159819,20889
78166040,20889
78171272,20892
78177456,20893
78183645,20892
78189862,20898
78196016,20888
78202232,20891
78208452,20897
78214599,20893
78226194,20894
78232383,20890
78238551,20892
78244797,20888
78251008,20896
78256209,20890
78262420,20889
78268585,20887
78274049,20895
78280232,20892
78286462,20900
78292697,20895
78298929,20891
78305128,20893
78311303,20892
78317470,20891
78323679,20891
78329850,20891
78336095,20893
78342305,20894
78348539,20897
78360887,20900
78367082,20895
78373275,20899
78379464,20894
78385658,20892
78390899,20897
78397090,20895
78403299,20898
78408800,20893
78414978,20894
78421211,20897
78427411,20890
78433595,20893
78439788,20900
78444984,20891
78451194,20892
78457363,20896
78463587,20894
78469803,20893
78475968,20896
78482191,20894
78488371,20900
78494595,20896
78500803,20894
78506981,20894
78513207,20894
78519409,20895
78525572,20897
78531765,20890
78537937,20889
78543380,20894
78549566,20894
78555811,20899
78562049,20896
78568894,20894
78575096,20889
78580293,20894
78586468,20890
78592688,20896
78598883,20893
78605111,20890
78611332,20894
78617526,20890
78623716,20896
78635355,20883
78641509,20892
78647720,20888
78653927,20893
78660086,20892
78665302,20896
78671534,20890
78676964,20899
78683152,20892
78689312,20886
78695518,20896
78701781,20892
78707993,20894
78713178,20896
78719381,20888
78725560,20890
78731778,20891
78738001,20897
78744222,20896
78750447,20890
78756603,20889
78762829,20896
78768998,20867
78775223,20862
78782142,20867
78788345,20867
78794531,20862
78799938,20862
78806168,20863
78811386,20867
78817567,20861
78823750,20858
78829908,20864
78836100,20859
78842346,20860
78847772,20858
78853974,20860
78860137,20867
78866341,20862
78872531,20859
78878776,20860
78885024,20861
78891231,20864
78897432,20861
78908782,20861
78914950,20870
78921172,20873
78927347,20863
78933538,20868
78938981,20868
78945175,20864
78951361,20863
78957551,20867
78963787,20870
78969954,20868
78976139,20864
78982390,20865
78988552,20869
78995401,20863
79001673,20858
79007883,20869
79014091,20865
79020258,20866
79026452,20866
79032660,20863
79044036,20862
79050264,20863
79056483,20859
79062650,20861
79068828,20865
79075006,20859
79081227,20863
79086715,20860
79092900,20866
79099112,20863
79105267,20860
79111434,20863
79117594,20858
79122829,20860
79128988,20856
79135202,20859
79141421,20861
79147619,20864
79153862,20856
79160049,20859
79166332,20863
79178032,20867
79190801,20862
79197095,20865
79203378,20858
79210253,20859
79215738,20857
79221951,20865
79228205,20860
79234455,20866
79240681,20859
79246885,20865
79252073,20862
79258314,20867
79264537,20861
79270756,20863
79276959,20869
79283206,20862
79289432,20862
79295660,20864
79307424,20864
79313629,20866
79319849,20862
79326045,20867
79332260,20866
79338522,20864
79343788,20870
79349284,20861
79355515,20867
79361757,20870
79368041,20866
79374283,20858
79380539,20857
79385780,20866
79391960,20857
79398208,20860
79404393,20863
79410624,20866
79416873,20870
79423798,20863
79430064,20868
79441819,20865
79448006,20865
79454195,20873
79460430,20864
79466620,20868
79472845,20872
79478069,20864
79483570,20862
79489823,20864
79496022,20868
79502248,20867
79508486,20864
79514723,20869
79520950,20867
79527198,20863
79533458,20861
79539685,20863
79545904,20857
79552118,20865
79558282,20860
79564535,20861
79576037,20843
79582287,20839
79588507,20835
79594737,20837
79600988,20837
79607214,20841
79612665,20843
79617901,20836
79624132,20839
79630350,20840
79637242,20833
79643431,20835
79649583,20838
79655805,20837
79661225,20829
79667449,20834
79673609,20831
79679834,20834
79686077,20839
79692239,20835
79698466,20831
79704690,20838
79710874,20833
79717052,20831
79723204,20829
79729419,20832
79735588,20827
79741783,20829
79746999,20826
79752465,20827
79758659,20829
79764834,20826
79771026,20827
79777218,20829
79783427,20822
79789599,20822
79794800,20827
79800965,20821
79807142,20827
79813368,20822
79819593,20821
79825804,20827
79832028,20822
79838233,20826
79850558,20818
79856735,20815
79862931,20815
79869157,20814
79875354,20816
79881545,20814
79887045,20806
79893216,20799
79899442,20797
79905639,20807
79911859,20807
79918076,20810
79924252,20803
79929497,20797
79935691,20799
79941850,20798
79948063,20794
79954274,20792
79960484,20790
79966720,20790
79972938,20789
79984565,20785
79990792,20778
79996990,20783
80003150,20782
80009338,20789
80015525,20781
80020772,20785
80026926,20786
80033153,20785
80039352,20788
80045539,20793
80051753,20784
80058589,20789
80063997,20789
80070164,20790
80076325,20790
80082539,20789
80088758,20797
80094944,20796
80101147,20793
80107347,20795
80118777,20803
80124963,20800
80131160,20795
80137339,20794
80143514,20807
80149723,20796
80155189,20792
80160418,20798
80166657,20795
80172853,20799
80179043,20803
80185264,20796
80191445,20799
80197596,20799
80203038,20806
80209209,20798
80215407,20797
80221608,20803
80227809,20800
80234011,20807
80240194,20799
80246383,20795
80257788,20806
80264003,20803
80270838,20803
80276986,20804
80283218,20801
80289414,20798
80294855,20799
80301081,20801
80307287,20799
80313449,20798
80319600,20804
80325789,20801
80331989,20796
80337185,20798
80343396,20797
80349616,20792
80355861,20788
80362034,20787
80368240,20791
80374426,20790
80380630,20791
80392233,20786
80398389,20775
80404604,20788
80410831,20782
80417069,20780
80423249,20781
80429464,20783
80442253,20783
80448485,20774
80454788,20783
80460974,20782
80466185,20774
80472351,20784
80478560,20786
80485321,20783
80491538,20783
80497729,20786
80503946,20782
80510182,20779
80521803,20779
80528011,20783
80534198,20779
80540409,20777
80546588,20780
80552797,20773
80558989,20776
80564244,20777
80570444,20778
80576616,20779
80582824,20772
80588987,20778
80595220,20773
80600690,20774
80606874,20777
80613079,20777
80619245,20775
80625479,20776
80631686,20770
80637907,20768
80644095,20776
80655504,20758
80661730,20757
80667896,20758
80674093,20755
80680309,20758
80686531,20754
80692758,20753
80698935,20752
80704407,20750
80710585,20753
80716794,20754
80722950,20748
80729110,20754
80734306,20752
80740497,20749
80746664,20752
80752861,20745
80759029,20751
80765266,20743
80771484,20750
80777667,20747
80789297,20710
80795474,20706
80801669,20704
80807873,20707
80814065,20703
80820249,20706
80826489,20710
80831736,20706
80837988,20705
80844232,20699
80850445,20693
80856636,20700
80862820,20699
80868994,20699
80875191,20706
80881388,20700
80887592,20708
80893790,20701
80900020,20695
80906888,20700
80913154,20699
80924882,20721
80931020,20721
80937240,20721
80943441,20729
80949590,20729
80955792,20729
80961982,20729
80967458,20730
80973640,20725
80978900,20732
80985069,20733
80991255,20725
80997450,20731
81002862,20733
81009060,20729
81015261,20730
81021505,20727
81027728,20729
81033954,20732
81040179,20732
81046315,20731
81052484,20729
81058634,20719
81064828,20723
81070988,20718
81077188,20717
81083348,20723
81089496,20721
81095712,20726
81100922,20727
81107142,20724
81112572,20724
81119406,20729
81125616,20730
81131863,20730
81138048,20732
81144236,20733
81150453,20736
81156626,20736
81162899,20733
81169102,20735
81175294,20734
81181475,20734
81187729,20727
81199155,20782
81205309,20787
81211531,20777
81217746,20788
81223937,20788
81230186,20789
81235635,20790
81241895,20787
81247127,20790
81253347,20791
81259550,20785
81265730,20790
81271943,20794
81277421,20792
81283596,20793
81289821,20790
81295959,20794
81302180,20790
81308373,20793
81314567,20788
81320812,20797
81333154,20810
81339339,20812
81345512,20810
81351726,20809
81357900,20810
81364119,20807
81369313,20804
81375519,20811
81381756,20810
81387947,20805
81394126,20808
81400313,20810
81406522,20807
81411943,20814
81418112,20809
81424306,20805
81430499,20813
81436698,20815
81442894,20811
81449095,20809
81455273,20813
81466699,20837
81472918,20841
81479112,20836
81485300,20840
81491482,20843
81497659,20838
81503902,20836
81510099,20843
81516298,20846
81521789,20842
81528018,20843
81534228,20850
81540995,20849
81546240,20844
81552483,20845
81558729,20855
81564932,20847
81571201,20845
81577406,20853
81583654,20855
81589916,20863
81601597,20871
81607809,20864
81614011,20864
81620257,20865
81626506,20869
81632768,20864
81638996,20870
81644241,20866
81650466,20869
81655946,20875
81662139,20867
81668347,20866
81674575,20871
81680783,20863
81693635,20865
81699932,20867
81706163,20867
81712406,20863
81718709,20859
81724935,20862
81731201,20843
81737446,20834
81743669,20837
81749927,20836
81755960,20840
81762876,20833
81769110,20844
81774643,20842
81780883,20843
81786103,20836
81792349,20841
81798552,20841
81804793,20838
81811026,20834
81816515,20835
81822719,20835
81828959,20836
81835216,20841
81841467,20838
81847677,20840
81853897,20841
81860156,20836
81871541,20838
81877713,20838
81883916,20837
81890139,20833
81896320,20832
81902508,20834
81907975,20835
81914187,20836
81919396,20842
81925593,20840
81931822,20841
81938020,20840
81944237,20837
81950393,20836
81956595,20832
81962821,20835
81969638,20840
81975895,20831
81982115,20833
81988326,20823
81994544,20835
82006208,20832
82012435,20832
82018639,20828
82024842,20831
82031066,20834
82037251,20837
82042501,20839
82048659,20835
82054164,20835
82060340,20836
82066510,20836
82072714,20836
82078901,20834
82085092,20833
82091256,20835
82097462,20839
82103713,20844
82109901,20833
82116107,20834
82122255,20830
82128455,20830
82139833,20835
82146018,20835
82152221,20838
82158439,20839
82164614,20840
82170817,20837
82176235,20837
82183015,20844
82189195,20840
82195397,20838
82201555,20846
82207816,20834
82214038,20844
82220244,20843
82225452,20841
82231644,20835
82237819,20843
82244005,20841
82250245,20846
82256445,20840
82262579,20839
82274245,20844
82280415,20841
82286612,20845
82292816,20841
82299026,20841
82305176,20839
82310399,20841
82316615,20848
82322832,20843
82328999,20844
82335210,20846
82341400,20837
82347592,20841
82353798,20840
82359218,20846
82365430,20847
82371599,20851
82377821,20851
82384012,20845
82390208,20846
82397019,20847
82408439,20816
82414594,20814
82420783,20826
82426980,20813
82433192,20812
82439383,20813
82444836,20821
82451016,20818
82457193,20816
82463408,20804
82469603,20813
82475835,20812
82482025,20807
82488242,20803
82493478,20807
82499702,20815
82505924,20811
82512129,20811
82518390,20811
82524610,20809
82530898,20812
82537147,20813
82543347,20805
82549531,20804
82555775,20811
82562002,20810
82568239,20813
82574460,20804
82579935,20804
82586177,20811
82592460,20813
82597703,20812
82604560,20814
82610862,20814
82617069,20809
82623262,20810
82628735,20816
82634958,20814
82641111,20812
82647281,20813
82653462,20809
82659697,20815
82665898,20817
82672108,20813
82683548,20813
82689761,20809
82695920,20807
82702102,20808
82708347,20812
82713848,20806
82720080,20811
82726342,20811
82732546,20810
82738790,20809
82745009,20806
82751246,20810
82757423,20810
82762648,20810
82768901,20810
82775165,20807
82781385,20806
82787618,20814
82793897,20813
82800129,20811
82806339,20817
82818688,20813
82824920,20817
82831137,20814
82837432,20810
82843701,20806
82848936,20812
82855193,20815
82861409,20811
82866971,20816
82873192,20819
82879382,20811
82885513,20819
82891730,20819
82897179,20817
82903438,20816
82909660,20818
82915926,20813
82922113,20816
82928335,20810
82946754,20822
82952993,20821
82959205,20818
82965451,20823
82971669,20820
82977196,20821
82983475,20824
82989724,20824
82995961,20820
83002172,20823
83008458,20828
83014666,20815
83020892,20826
83027112,20818
83033323,20818
83040208,20822
83046485,20818
83052713,20820
83058946,20821
83065188,20819
83071465,20824
83082967,20825
83089154,20833
83095377,20836
83101591,20825
83107857,20827
83113358,20833
83119623,20831
83125901,20828
83132140,20829
83137376,20824
83143616,20832
83149850,20828
83156056,20824
83161532,20833
83167766,20829
83173953,20833
83180186,20831
83186439,20833
83192712,20825
83198945,20829
83205172,20829
83216599,20805
83222858,20801
83229086,20798
83235302,20800
83241547,20798
83247038,20794
83253927,20798
83260145,20800
83266361,20798
83271569,20796
83277789,20802
83283966,20798
83290217,20796
83295678,20797
83301875,20797
83308033,20795
83314210,20798
83320422,20796
83326669,20795
83332940,20791
83339199,20791
83350716,20809
83356921,20805
83363136,20804
83369344,20797
83375545,20801
83381053,20802
83387319,20798
83393538,20804
83399794,20797
83405043,20799
83411293,20795
83417524,20799
83423780,20799
83430028,20798
83436274,20797
83442514,20798
83448791,20800
83455053,20804
83461937,20801
83468207,20790
83474422,20795
83486077,20798
83492341,20798
83498571,20794
83504814,20800
83511042,20797
83516600,20796
83522855,20796
83529065,20795
83535356,20798
83540572,20798
83546828,20799
83553067,20800
83559305,20797
83565498,20802
83570989,20796
83577197,20797
83583419,20801
83589647,20795
83595888,20800
83602117,20796
83608330,20796
83619742,20809
83625980,20801
83632211,20804
83638419,20807
83644626,20806
83650100,20805
83656315,20806
83662578,20807
83668820,20809
83674891,20798
83681117,20798
83687357,20797
83693565,20800
83699801,20801
83705028,20804
83711222,20800
83717464,20810
83723749,20805
83729975,20805
83736185,20807
83742389,20803
83754089,20816
83760321,20817
83766552,20812
83772649,20808
83778926,20812
83784152,20810
83790353,20814
83796598,20812
83802865,20817
83808316,20817
83814570,20809
83820821,20819
83827029,20818
83833200,20821
83839432,20815
83845604,20813
83851845,20814
83858043,20813
83864282,20810
83870553,20812
83876798,20819
83889063,20816
83895323,20822
83901567,20821
83907814,20814
83914004,20808
83919249,20815
83925458,20821
83931744,20820
83937946,20822
83943425,20818
83949617,20821
83955853,20815
83962034,20819
83968280,20824
83973509,20815
83979758,20824
83985986,20817
83992207,20813
83998449,20817
84004661,20816
84010919,20819
84017156,20813
84023329,20811
84029540,20809
84035814,20806
84042033,20807
84048229,20808
84053694,20808
84059923,20806
84066131,20805
84072359,20805
84077606,20800
84083825,20799
84090044,20795
84096888,20794
84103174,20796
84108643,20794
84114860,20799
84121059,20794
84127278,20795
84133535,20788
84139767,20796
84146025,20786
84152256,20792
84163671,20784
84169926,20787
84176144,20786
84182398,20790
84194481,20780
84200763,20785
84207091,20786
84213392,20785
84219620,20785
84225908,20785
84232130,20791
84237360,20787
84243577,20783
84249807,20786
84256031,20785
84262314,20792
84268518,20787
84274734,20792
84280989,20792
84292756,20785
84298903,20784
84305172,20787
84311392,20783
84317234,20784
84323495,20779
84329693,20789
84335905,20779
84342148,20787
84347591,20789
84353830,20789
84360066,20783
84366287,20789
84372585,20781
84378827,20781
84385063,20780
84391285,20782
84397535,20777
84403771,20787
84410002,20776
84416234,20776
84427737,20783
84433958,20791
84440190,20773
84446406,20780
84451910,20785
84458098,20786
84464361,20786
84470622,20789
84476878,20784
84482110,20787
84488355,20782
84494604,20785
84500850,20783
84506298,20787
84512532,20792
84518707,20789
84524925,20792
84531830,20787
84538079,20786
84544300,20790
84550557,20790
84562056,20796
84568319,20792
84574505,20791
84580677,20790
84586176,20793
84592335,20791
84598566,20791
84604873,20791
84611072,20790
84616316,20790
84622505,20791
84628686,20794
84634921,20790
84641161,20792
84647390,20795
84653624,20797
84659853,20803
84666051,20796
84672297,20793
84678531,20803
84684782,20796
84696535,20809
84702751,20806
84708953,20808
84715177,20810
84720362,20809
84726540,20809
84732810,20802
84739016,20805
84745909,20806
84751422,20804
84757651,20808
84763882,20811
84770079,20806
84776279,20810
84781512,20814
84787738,20803
84793927,20811
84800182,20809
84806390,20809
84812616,20812
84818897,20808
84830661,20815
84836910,20814
84843131,20811
84849341,20813
84854593,20813
84860832,20815
84867073,20812
84873235,20817
84879486,20810
84884978,20817
84891173,20804
84897445,20811
84903668,20814
84909907,20816
84915124,20810
84921377,20803
84927553,20812
84933812,20809
84940036,20810
84946282,20810
84952514,20809
84964892,20773
84971105,20781
84977335,20775
84983546,20785
84988778,20775
84995022,20778
85001262,20779
85007498,20782
85013784,20781
85019268,20783
85025494,20781
85031735,20778
85037948,20782
85044156,20785
85050436,20773
85056647,20780
85062869,20785
85069118,20775
85075350,20778
85081550,20781
85087785,20779
85099265,20779
85105509,20779
85111775,20786
85117986,20781
85124195,20772
85130378,20776
85136626,20780
85142869,20776
85149116,20779
85154642,20786
85160912,20783
85167135,20778
85174033,20781
85180258,20781
85186472,20780
85192712,20781
85198958,20778
85205174,20780
85211434,20779
85217631,20781
85223879,20780
85235388,20771
85241599,20776
85247863,20773
85253337,20771
85259574,20776
85265794,20774
85272024,20779
85278246,20780
85284515,20773
85289751,20773
85295995,20774
85302249,20776
85308464,20779
85314705,20776
85320966,20775
85326450,20779
85332665,20780
85338882,20772
85345079,20776
85351287,20774
85357523,20776
85369048,20776
85375283,20777
85382114,20781
85387642,20780
85393859,20783
85400081,20778
85406334,20783
85412615,20789
85418859,20783
85424093,20785
85430339,20786
85436561,20785
85449454,20777
85455698,20781
85461939,20783
85468170,20780
85474393,20782
85480618,20788
85486892,20787
85498675,20787
85504926,20786
85511175,20783
85516406,20789
85522618,20783
85528835,20783
85535050,20789
85541299,20793
85547505,20783
85553007,20788
85559224,20785
85565484,20777
85571746,20794
85577968,20787
85584205,20788
85590438,20785
85595657,20788
85602508,20788
85608825,20791
85615084,20783
85621333,20790
85633029,20793
85639225,20797
85645472,20799
85650702,20795
85656918,20798
85663120,20796
85669305,20796
85675498,20794
85681681,20794
85687145,20797
85693356,20797
85699560,20787
85705750,20795
85711938,20797
85718177,20794
85724438,20792
85730645,20794
85736866,20793
85743113,20793
85749365,20794
85755657,20803
85767092,20788
85773309,20784
85779524,20787
85785002,20781
85791257,20782
85797491,20781
85803687,20781
85809870,20779
85816767,20776
85822033,20779
85828295,20774
85834513,20774
85840707,20774
85846959,20770
85853193,20773
85859445,20776
85864949,20773
85871184,20764
85877421,20770
85883658,20762
85889909,20769
85901417,20761
85907609,20764
85913867,20758
85919338,20762
85925561,20765
85931780,20762
85937939,20755
85944082,20762
85950309,20765
85956587,20764
85962829,20762
85969046,20763
85975306,20761
85981555,20760
85987803,20761
85993997,20764
85999203,20762
86005405,20764
86011641,20764
86017894,20760
86024089,20768
86036356,20759
86042622,20757
86048861,20760
86054062,20757
86060306,20757
86066484,20762
86072680,20756
86078898,20760
86085112,20765
86090611,20759
86096823,20760
86103047,20759
86109297,20755
86115539,20755
86121843,20756
86128039,20755
86134270,20756
86140505,20755
86146749,20756
86152999,20752
86159258,20756
86170716,20758
86176950,20754
86183198,20753
86188669,20755
86194900,20759
86201080,20761
86207350,20756
86213576,20759
86219768,20761
86224988,20762
86231208,20761
86237421,20765
86244310,20763
86250455,20768
86256672,20761
86262932,20764
86269151,20762
86274587,20763
86280797,20761
86287044,20764
86293270,20762
86304799,20763
86311033,20763
86317261,20761
86322757,20760
86328986,20764
86335195,20767
86341491,20765
86347721,20765
86353937,20767
86360181,20765
86366406,20765
86372661,20765
86378902,20769
86385090,20773
86391304,20767
86397551,20767
86403786,20767
86409030,20768
86415291,20774
86421493,20770
86427767,20764
86439417,20763
86445677,20767
86451888,20769
86458083,20769
86464299,20762
86470518,20769
86476734,20771
86482943,20769
86489161,20774
86495435,20772
86500705,20771
86506943,20774
86513206,20772
86519426,20772
86525633,20773
86531873,20772
86538112,20781
86543582,20772
86549790,20773
86556016,20779
86562240,20774
86573790,20777
86580016,20774
86586238,20776
86591737,20777
86597970,20777
86604182,20775
86610379,20774
86616598,20773
86622834,20772
86629073,20771
86634309,20774
86640505,20775
86646759,20772
86652998,20774
86659208,20770
86666069,20771
86672334,20768
86677834,20769
86684027,20772
86690262,20770
86703103,20743
86709406,20746
86715714,20743
86721232,20743
86727499,20748
86733725,20749
86739958,20746
86746187,20749
86752435,20745
86758656,20748
86763921,20745
86770168,20751
86776413,20741
86782643,20745
86788890,20743
86795110,20745
86801308,20745
86806771,20749
86812996,20747
86819200,20743
86825443,20752
86831669,20750
86843163,20751
86849381,20754
86854879,20754
86861095,20751
86867319,20754
86873576,20749
86879791,20753
86886617,20752
86892856,20747
86898101,20756
86904324,20756
86910551,20745
86916811,20750
86923088,20755
86929320,20754
86935535,20747
86941033,20744
86947185,20752
86953485,20747
86959676,20747
86965934,20750
86977381,20747
86983604,20745
86989037,20747
86995265,20746
87001485,20752
87007712,20753
87013921,20742
87020110,20753
87026316,20750
87032590,20747
87038822,20753
87045060,20753
87051282,20753
87057526,20750
87063776,20748
87069978,20747
87076157,20756
87082380,20756
87088594,20748
87094824,20753
87101763,20751
87113231,20751
87119465,20746
87124963,20747
87131169,20750
87137375,20751
87143544,20748
87149788,20753
87156008,20743
87162227,20752
87168481,20746
87173775,20750
87179999,20746
87186247,20752
87192484,20749
87198696,20746
87204955,20749
87210430,20746
87216677,20748
87222904,20750
87229151,20751
87235370,20749
87246860,20753
87253146,20749
87258638,20747
87264899,20748
87271137,20747
87277329,20747
87283590,20751
87289815,20747
87296058,20751
87302298,20748
87307567,20750
87314486,20755
87320708,20750
87326898,20750
87333155,20752
87339356,20744
87344834,20747
87351023,20751
87357227,20747
87363452,20748
87369701,20748
87381175,20738
87387391,20738
87392856,20740
87399039,20737
87405277,20734
87411503,20734
87417699,20734
87423868,20737
87430056,20734
87436286,20737
87441532,20731
87447810,20729
87454020,20726
87460258,20725
87466495,20718
87472719,20723
87478952,20713
87485217,20717
87491439,20711
87497664,20713
87503949,20715
87515659,20691
87521891,20688
87528069,20684
87534340,20684
87540574,20684
87546817,20689
87552986,20691
87559198,20687
87565402,20692
87571667,20686
87576932,20691
87583170,20690
87589398,20690
87595633,20692
87601912,20688
87608135,20689
87614358,20688
87619835,20689
87626043,20695
87632268,20687
87638540,20688
87650029,20696
87656243,20703
87661759,20697
87668021,20696
87674192,20701
87680443,20695
87686710,20702
87692895,20700
87699096,20693
87705315,20698
87710580,20700
87716863,20696
87723123,20694
87729363,20706
87736026,20697
87742290,20696
87748463,20702
87753937,20699
87760164,20701
87766394,20696
87772592,20704
87778803,20705
87785035,20698
87791214,20699
87796473,20695
87802714,20700
87808977,20700
87815186,20694
87821419,20704
87827620,20696
87833863,20695
87840062,20697
87845519,20698
87851763,20697
87857988,20700
87864212,20692
87870452,20702
87876728,20693
87882912,20697
87888115,20703
87894310,20699
87900541,20698
87906805,20700
87913072,20698
87924799,20699
87930008,20702
87936238,20705
87942435,20701
87955875,20704
87962103,20703
87968371,20706
87974579,20703
87980796,20706
87986999,20703
87993243,20708
87999436,20704
88005646,20707
88011841,20702
88017269,20705
88023464,20705
88029668,20704
88035869,20704
88042080,20704
88053528,20710
88059704,20704
88065917,20706
88072150,20701
88078402,20704
88084607,20705
88090811,20705
88097037,20711
88103293,20705
88109526,20712
88114939,20705
88121170,20703
88127486,20706
88133683,20711
88139912,20713
88146160,20713
88152379,20702
88158595,20706
88164833,20710
88171752,20710
88178014,20708
88189473,20698
88194981,20687
88201197,20687
88207434,20694
88213650,20690
88219894,20691
88226072,20690
88232287,20681
88238488,20684
88244700,20678
88249964,20686
88256182,20685
88262401,20681
88268596,20680
88274827,20685
88281004,20678
88287207,20683
88292674,20680
88298928,20683
88305121,20684
88311320,20680
88322830,20673
88328322,20677
88334598,20673
88340797,20674
88347054,20674
88353222,20676
88359486,20684
88365709,20682
88371913,20681
88378115,20677
88383965,20674
88390244,20678
88396479,20677
88402703,20676
88408925,20675
88415096,20679
88421334,20681
88426803,20682
88433044,20683
88439268,20682
88445508,20681
88451729,20672
88457958,20673
88463171,20674
88469411,20679
88475669,20675
88481931,20672
88488150,20675
88494376,20674
88500595,20675
88506792,20675
88513006,20664
88518507,20676
88524665,20674
88530918,20670
88537116,20673
88543359,20668
88549591,20671
88555800,20668
88561048,20678
88567304,20676
88573541,20673
88579759,20670
88585987,20667
88592776,20670
88598354,20671
88604610,20676
88610878,20679
88617085,20675
88623337,20677
88629581,20673
88635834,20674
88642028,20675
88648234,20679
88653486,20668
88659665,20670
88665839,20673
88672005,20679
88678209,20678
88684403,20675
88690599,20675
88696048,20679
88702240,20673
88708441,20684
88714618,20680
88720858,20679
88731546,20676
88737712,20675
88743919,20669
88750091,20671
88756326,20680
88762509,20678
88768723,20674
88774956,20682
88781183,20685
88786675,20681
88792878,20677
88799097,20681
88805926,20681
88812118,20680
88818295,20676
88824489,20686
88829711,20684
88835895,20685
88842056,20678
88848308,20679
88854495,20680
88866151,20687
88872304,20680
88878496,20675
88884688,20674
88890917,20671
88897094,20672
88903251,20675
88909452,20674
88915615,20673
88920853,20673
88927008,20674
88933185,20674
88939405,20674
88945602,20668
88951797,20677
88957954,20670
88964129,20667
88970382,20667
88976559,20668
88982722,20667
88988922,20663
89000521,20643
89005732,20640
89011918,20646
89018736,20644
89024964,20643
89031186,20645
89037333,20640
89043485,20644
89049703,20646
89055898,20651
89062062,20644
89068298,20642
89074459,20644
89080627,20646
89086821,20644
89092978,20644
89099164,20650
89104608,20638
89110825,20645
89116994,20644
89123208,20644
89129417,20641
89135624,20645
89140852,20641
89147040,20639
89153275,20648
89159459,20647
89165669,20640
89171874,20641
89178054,20641
89184312,20645
89190526,20641
89202607,20638
89208785,20645
89215068,20640
89221311,20644
89227537,20639
89233645,20640
89239893,20645
89246113,20640
89252304,20639
89258531,20640
89269251,20636
89275465,20643
89281687,20640
89287891,20641
89294062,20641
89300277,20642
89306469,20640
89312625,20640
89318795,20639
89324978,20636
89331200,20638
89337429,20643
89343639,20638
89349851,20638
89356068,20640
89362281,20641
89368454,20638
89374650,20640
89380833,20641
89387003,20642
89393236,20641
89404265,20642
89410493,20649
89416690,20646
89422916,20648
89429131,20652
89435326,20651
89442100,20648
89448281,20656
89454481,20654
89460685,20652
89465911,20650
89472081,20646
89478309,20647
89484498,20649
89490687,20647
89496882,20648
89503099,20652
89508586,20646
89514796,20655
89520995,20652
89527172,20646
89537790,20656
89543935,20652
89550149,20652
89556388,20652
89562575,20655
89568735,20656
89574901,20655
89581070,20650
89587292,20656
89593490,20650
89598970,20651
89605150,20654
89611315,20657
89617530,20659
89623700,20651
89629922,20653
89636121,20659
89642305,20652
89648493,20649
89655283,20659
89661469,20657
89667615,20654
89672843,20630
89678995,20632
89685252,20631
89691421,20628
89697580,20631
89703732,20638
89709921,20630
89716105,20626
89722318,20628
89728559,20627
89733992,20633
89740205,20631
89746364,20624
89752566,20626
89758776,20622
89764981,20624
89771202,20625
89777376,20620
89782570,20624
89788779,20622
89794975,20621
89801143,20616
89806602,20615
89812816,20619
89819044,20614
89825255,20616
89831421,20613
89837603,20616
89843791,20612
89849965,20616
89856163,20618
89862999,20616
89868230,20619
89874425,20621
89880662,20612
89886884,20617
89893064,20618
89899281,20620
89905490,20615
89911673,20620
89917147,20619
89923366,20615
89929534,20614
89935768,20613
89940954,20616
89952595,20593
89958800,20591
89964976,20592
89971170,20595
89977374,20596
89983600,20592
89989849,20588
89996061,20594
90002308,20591
90008520,20592
90014728,20593
90020962,20588
90027148,20594
90033305,20594
90039479,20588
90045707,20590
90050922,20593
90057118,20596
90063341,20591
90069549,20591
90076406,20588
90088084,20596
90094247,20598
90100409,20600
90106570,20598
90112771,20599
90118972,20602
90125156,20600
90131393,20608
90137599,20600
90142778,20601
90148961,20604
90155209,20605
90161373,20606
90167595,20600
90173780,20599
90179940,20600
90185358,20601
90191541,20610
90197757,20607
90204006,20603
90210228,20602
90215435,20606
90221655,20606
90227833,20602
90234006,20607
90240236,20611
90246424,20614
90252604,20612
90258836,20606
90265103,20613
90271352,20608
90276903,20609
90283776,20614
90290034,20603
90296249,20610
90302422,20606
90308619,20612
90314843,20606
90320325,20613
90326506,20610
90332780,20610
90339013,20613
90345242,20610
90350458,20613
90362045,20625
90368250,20620
90374484,20621
90380715,20618
90386939,20617
90393151,20619
90399387,20620
90405629,20620
90410878,20624
90417110,20626
90423353,20629
90429555,20622
90435822,20628
90442048,20626
90454113,20624
90460366,20625
90466664,20626
90472896,20622
90479106,20619
90490834,20601
90497052,20599
90503902,20599
90510118,20595
90516356,20593
90522598,20597
90528814,20596
90535043,20594
90540300,20600
90546530,20592
90552777,20596
90558957,20592
90565154,20595
90571358,20599
90577586,20596
90583856,20594
90590076,20595
90596317,20591
90602541,20592
90608750,20603
90614230,20595
90625722,20592
90631975,20594
90638176,20595
90644370,20595
90650565,20598
90656730,20595
90662942,20595
90669126,20596
90675319,20596
90681536,20597
90687739,20595
90693958,20595
90700174,20596
90706381,20597
90713170,20594
90719406,20594
90724845,20593
90731044,20598
90737242,20598
90743440,20595
90748664,20597
90760316,20595
90766513,20591
90772663,20593
90778897,20591
90785103,20593
90791329,20590
90797517,20591
90803712,20592
90809928,20595
90815164,20593
90821382,20592
90827578,20590
90833803,20590
90839996,20599
90846210,20595
90852411,20598
90858619,20594
90864835,20597
90871018,20594
90877222,20589
90882676,20596
90894106,20605
90900309,20609
90906494,20609
90912691,20605
90918901,20603
90925695,20600
90931961,20607
90938199,20600
90944417,20604
90949992,20605
90956240,20606
90962399,20603
90968625,20608
90974820,20606
90981028,20604
90987219,20601
90992663,20606
90998901,20603
91005136,20605
91011320,20602
91016528,20609
91022731,20605
91028962,20618
91035200,20614
91041418,20609
91047608,20615
91053819,20608
91060013,20611
91066196,20614
91072434,20612
91078646,20611
91084066,20609
91090255,20613
91096498,20617
91102693,20612
91108885,20619
91115095,20613
91121283,20609
91127431,20619
91133636,20609
91140526,20616
91146712,20612
91151926,20615
91158161,20612
91169829,20611
91176021,20613
91182239,20612
91188394,20615
91194593,20616
91200812,20620
91207016,20616
91213229,20614
91218436,20615
91224650,20611
91230863,20619
91237007,20607
91243199,20610
91249403,20610
91255615,20610
91261790,20611
91267254,20610
91273452,20614
91279673,20606
91285917,20598
91292129,20600
91303500,20591
91309680,20590
91315860,20594
91322031,20595
91328205,20594
91334445,20589
91340642,20587
91347296,20591
91352808,20592
91359005,20594
91365278,20587
91371486,20595
91377660,20594
91383879,20590
91390060,20592
91396207,20590
91401395,20592
91407628,20589
91413816,20596
91420038,20596
91426259,20590
91437892,20595
91444080,20585
91450253,20590
91456429,20593
91462640,20589
91468910,20598
91475044,20594
91481215,20589
91487403,20593
91493592,20590
91499789,20594
91505983,20586
91512175,20588
91518367,20590
91524560,20589
91530788,20592
91535998,20591
91542251,20596
91548471,20592
91554692,20592
91560863,20594
91572488,20599
91578679,20604
91584888,20602
91591083,20602
91597266,20592
91603482,20600
91609690,20599
91615927,20599
91622138,20609
91627360,20596
91633567,20599
91639748,20596
91645928,20597
91652149,20602
91658348,20603
91664551,20609
91670749,20603
91676925,20603
91683130,20601
91689329,20599
91701374,20609
91707585,20612
91713867,20613
91720100,20610
91726257,20610
91732424,20613
91738610,20614
91744808,20612
91750992,20614
91757182,20613
91763396,20609
91769596,20610
91776402,20612
91782640,20616
91788872,20613
91795058,20609
91801294,20610
91806532,20613
91812729,20612
91818994,20613
91824416,20616
91830602,20610
91842056,20611
91848228,20620
91854424,20619
91860599,20614
91866824,20611
91873041,20619
91879251,20617
91885444,20618
91891691,20614
91897182,20612
91903369,20616
91909532,20616
91915682,20614
91921886,20609
91928081,20614
91934266,20610
91939509,20611
91945687,20609
91951942,20604
91957378,20602
91963632,20604
91975090,20589
91981316,20584
91988096,20590
91994334,20586
92000528,20592
92006735,20589
92012970,20588
92019168,20589
92025382,20584
92030856,20587
92037058,20588
92043241,20589
92049431,20591
92055621,20592
92061827,20589
92068015,20589
92074229,20587
92080420,20592
92086655,20587
92091894,20586
92098068,20591
92104280,20590
92110468,20584
92116668,20582
92122850,20584
92128995,20589
92135172,20580
92141376,20580
92147579,20582
92153788,20581
92160040,20583
92165500,20578
92171755,20581
92178005,20576
92184225,20585
92190434,20582
92196701,20587
92203607,20582
92209854,20580
92215066,20581
92221311,20585
92226785,20575
92233049,20577
92239308,20573
92250731,20582
92256927,20578
92263130,20582
92269366,20584
92275589,20580
92281854,20584
92288113,20582
92294357,20583
92299841,20580
92306105,20583
92312300,20581
92318543,20581
92324704,20580
92330911,20581
92337084,20578
92343334,20578
92348535,20579
92354819,20580
92361041,20580
92367290,20574
92373538,20575
92385281,20580
92391534,20584
92397775,20583
92404032,20583
92410306,20584
92417187,20577
92423412,20582
92429683,20585
92434915,20583
92441132,20590
92447371,20588
92453589,20585
92459844,20586
92466089,20587
92472342,20585
92478595,20583
92484137,20592
92490371,20584
92495637,20589
92501894,20582
92508137,20594
92519860,20572
92526084,20566
92532315,20563
92538551,20571
92544773,20565
92550992,20560
92557199,20563
92563388,20565
92568619,20554
92574867,20562
92581064,20559
92587251,20557
92593473,20552
92599680,20554
92605932,20557
92612158,20549
92617661,20560
92623895,20553
92630074,20554
92636299,20549
92642521,20554
92653998,20554
92660235,20556
92666440,20553
92672655,20556
92678904,20552
92685140,20546
92691370,20555
92697593,20554
92703852,20550
92710069,20557
92716290,20545
92722514,20549
92728745,20548
92735003,20556
92741225,20554
92747443,20555
92752949,20556
92759192,20554
92764760,20555
92770998,20557
92777275,20556
92788783,20551
92795026,20549
92801226,20554
92807433,20557
92813670,20550
92819936,20562
92826152,20553
92832396,20551
92838459,20555
92844695,20548
92850900,20556
92857118,20551
92863319,20554
92869556,20553
92875771,20557
92881990,20551
92887195,20554
92893404,20550
92898903,20559
92905137,20550
92911372,20552
92922851,20556
92929068,20556
92935287,20556
92941486,20559
92954319,20558
92960521,20549
92966853,20556
92972278,20560
92978493,20560
92984712,20565
92990962,20557
92997162,20554
93003418,20563
93009669,20560
93015937,20559
93022209,20561
93027454,20556
93033664,20557
93039949,20563
93051680,20564
93058542,20564
93064800,20567
93071026,20571
93077197,20570
93083428,20566
93089643,20567
93095882,20568
93102123,20572
93108391,20575
93114630,20564
93120831,20570
93127018,20569
93133206,20574
93139424,20568
93145656,20573
93151878,20572
93157135,20570
93162656,20570
93168871,20563
93175086,20570
93186579,20568
93192729,20573
93198905,20565
93205077,20561
93211293,20565
93217464,20558
93223706,20557
93229937,20567
93236154,20558
93241624,20555
93247852,20556
93254086,20554
93260256,20555
93266454,20549
93273217,20549
93279412,20548
93285610,20548
93290802,20551
93296251,20548
93302482,20544
93308696,20541
93314913,20538
93321099,20534
93327267,20529
93333388,20535
93339585,20537
93345737,20533
93351937,20541
93358180,20537
93364371,20530
93370583,20532
93375758,20532
93381932,20534
93388118,20531
93394340,20531
93400547,20536
93406740,20535
93412932,20538
93419123,20529
93425328,20537
93430805,20535
93437013,20533
93443206,20535
93449398,20533
93455584,20538
93461790,20538
93468026,20541
93474237,20535
93481058,20535
93487249,20541
93493434,20533
93499643,20536
93505821,20533
93511047,20530
93517251,20533
93523460,20528
93529651,20533
93535877,20533
93542050,20534
93548244,20532
93554417,20532
93560640,20533
93565418,20533
93571663,20531
93577902,20528
93584067,20530
93595486,20534
93601679,20536
93607838,20533
93614019,20530
93620232,20538
93626441,20532
93632648,20535
93638848,20529
93645050,20536
93651262,20529
93657434,20535
93663634,20538
93669842,20535
93676056,20535
93682265,20531
93689118,20536
93695385,20535
93700199,20538
93706375,20536
93712600,20536
93718821,20532
93730224,20536
93736444,20536
93742608,20535
93748795,20532
93755008,20539
93761236,20539
93767422,20536
93773609,20535
93779817,20530
93785261,20539
93791502,20535
93797674,20535
93803907,20536
93810081,20533
93816285,20535
93822477,20536
93828677,20535
93833884,20533
93840068,20534
93846256,20530
93852465,20535
93864132,20539
93870332,20539
93876525,20543
93882717,20544
93888921,20544
93895147,20542
93901937,20538
93908089,20544
93914310,20540
93919537,20535
93925717,20541
93931904,20538
93938134,20538
93944330,20540
93950539,20531
93956755,20543
93963000,20548
93968505,20537
93974726,20542
93980971,20543
93987204,20542
93998609,20523
94004819,20520
94011024,20525
94017219,20517
94023449,20523
94029691,20518
94035970,20517
94042228,20514
94048499,20515
94054048,20515
94060304,20511
94066531,20514
94072711,20508
94078975,20509
94085184,20509
94091445,20508
94097657,20504
94103135,20505
94108369,20509
94115102,20503
94121336,20505
94133009,20508
94139205,20502
94145410,20508
94151584,20507
94157822,20502
94164028,20504
94170274,20503
94176470,20503
94182684,20500
94188911,20505
94201748,20505
94207978,20506
94214267,20501
94220464,20505
94226642,20506
94232873,20508
94238114,20508
94244385,20502
94250613,20500
94256810,20504
94263031,20504
94269249,20503
94275481,20499
94281656,20502
94287823,20503
94293983,20502
94300167,20508
94306362,20505
94312566,20499
94318754,20503
94324215,20507
94331070,20503
94337255,20499
94343406,20500
94349652,20503
94355847,20497
94362048,20504
94367297,20504
94372762,20503
94378997,20507
94385186,20507
94391354,20503
94402755,20522
94408925,20513
94415100,20514
94421289,20521
94427463,20519
94433683,20510
94439932,20514
94446109,20522
94452341,20519
94457774,20521
94463990,20519
94470188,20521
94476344,20520
94482525,20519
94488720,20522
94494928,20523
94501146,20516
94506408,20517
94512597,20526
94518793,20524
94524970,20527
94536592,20518
94543437,20519
94549630,20516
94555843,20519
94562022,20524
94568235,20522
94574423,20518
94580635,20523
94586843,20522
94592067,20518
94598246,20523
94604467,20525
94610657,20520
94616882,20519
94623114,20524
94629359,20525
94635542,20522
94640976,20514
94647231,20524
94653392,20526
94659598,20529
94671050,20524
94677268,20530
94683487,20527
94689681,20528
94695885,20530
94702062,20526
94708324,20521
94714538,20529
94720745,20530
94726961,20531
94733106,20536
94739328,20531
94745551,20533
94752353,20530
94758599,20533
94764820,20530
94771017,20531
94776451,20533
94781658,20533
94787840,20537
94794038,20531
94805622,20538
94811821,20541
94817981,20543
94824212,20535
94830407,20533
94836603,20535
94842829,20543
94849036,20544
94855222,20542
94861426,20544
94866631,20545
94872786,20541
94878954,20544
94885134,20543
94891331,20545
94897566,20545
94903762,20548
94909227,20546
94915439,20540
94921674,20554
94927928,20544
94934115,20548
94940261,20539
94946408,20538
94952570,20544
94958704,20536
94965552,20539
94971782,20540
94977981,20536
94984188,20532
94990384,20529
94996566,20530
95001811,20532
95008032,20532
95014208,20528
95020404,20522
95026632,20523
95032802,20527
95039001,20525
95044390,20517
95050631,20523
95055872,20523
95062085,20519
95068329,20522
95080047,20525
95086281,20517
95092549,20508
95098780,20513
95104928,20511
95111258,20520
95117463,20514
95123702,20511
95129948,20513
95135161,20513
95141415,20515
95147631,20511
95153870,20518
95160080,20507
95166296,20519
95172539,20514
95179378,20512
95185573,20512
95191058,20512
95197295,20511
95203507,20515
95214934,20508
95221163,20505
95227412,20509
95233630,20509
95239912,20508
95246122,20509
95252377,20506
95258605,20505
95264858,20513
95270323,20507
95276558,20506
95282813,20506
95289029,20510
95295270,20509
95301510,20505
95307756,20507
95314002,20507
95319247,20501
95324679,20506
95330914,20507
95337137,20506
95348534,20510
95354699,20514
95360866,20511
95367049,20507
95373251,20507
95379441,20512
95385614,20513
95392354,20508
95398603,20515
95404832,20504
95411039,20508
95417229,20514
95423415,20507
95429626,20512
95435885,20504
95442080,20511
95454142,20506
95460369,20515
95466596,20511
95478023,20514
95484253,20515
95490445,20515
95496630,20521
95502849,20514
95509048,20519
95515263,20519
95521504,20515
95527702,20514
95533899,20513
95540115,20515
95546343,20513
95552537,20520
95558688,20523
95564911,20516
95571067,20514
95577285,20513
95583487,20515
95588989,20517
95595228,20516
95601382,20512
95613448,20521
95619693,20519
95625842,20515
95632003,20516
95638172,20518
95644372,20512
95650600,20515
95656779,20514
95662940,20520
95669110,20517
95674581,20515
95680778,20512
95686992,20515
95693167,20513
95699313,20512
95705533,20518
95711683,20517
95717990,20516
95723540,20514
95729724,20509
95735921,20515
95747356,20517
95753549,20519
95759743,20520
95765959,20512
95772145,20524
95778354,20519
95784582,20514
95790795,20518
95796978,20512
95803190,20509
95808666,20512
95814858,20509
95821735,20514
95827955,20506
95834138,20508
95840322,20505
95846595,20506
95852851,20505
95858059,20500
95863515,20508
95869759,20503
95875934,20499
95882134,20480
95888364,20481
95894599,20479
95900820,20485
95907022,20480
95913167,20485
95919427,20482
95925652,20479
95931898,20480
95938117,20480
95943370,20483
95949592,20479
95955842,20485
95962049,20479
95968276,20472
95974489,20483
95980744,20474
95987018,20475
95992530,20480
95998056,20481
96004247,20476
96010436,20476
96021928,20481
96028713,20484
96034929,20480
96041085,20478
96047291,20481
96053499,20476
96059702,20477
96065902,20476
96072103,20480
96077516,20480
96083674,20479
96089908,20478
96096107,20481
96102250,20478
96108455,20474
96114690,20479
96120904,20480
96126098,20481
96132318,20476
96138531,20477
96144722,20477
96156327,20476
96162502,20468
96168681,20471
96174914,20474
96181077,20469
96187253,20469
96193451,20470
96199604,20475
96205835,20478
96212012,20472
96218214,20472
96224382,20474
96230568,20471
96236837,20470
96243683,20469
96249947,20477
96256180,20473
96261394,20478
96266876,20473
96273064,20477
96279222,20472
96290582,20472
96296737,20475
96302947,20467
96309136,20472
96315361,20469
96321561,20467
96327744,20465
96333963,20467
96340180,20468
96346395,20467
96351836,20463
96357995,20463
96364183,20467
96370345,20460
96376546,20461
96382734,20464
96388964,20465
96395218,20460
96401403,20461
96407570,20456
96413760,20460
96425153,20457
96431354,20461
96437546,20462
96443772,20461
96450480,20459
96456747,20460
96462944,20458
96469139,20460
96475379,20463
96481582,20467
96487044,20460
96493268,20460
96499448,20460
96505699,20467
96511959,20457
96518192,20459
96524352,20459
96530544,20457
96535017,20463
96541244,20470
96547422,20466
96553598,20465
96559740,20459
96565965,20459
96572184,20457
96578381,20459
96584617,20447
96590808,20455
96597020,20451
96603208,20456
96609381,20448
96615581,20452
96620822,20447
96626999,20449
96633182,20447
96639371,20445
96645559,20440
96651731,20445
96657965,20443
96664797,20443
96669601,20435
96675767,20438
96682005,20436
96688241,20442
96701026,20434
96707267,20428
96713513,20432
96719720,20430
96725962,20433
96732159,20426
96738381,20423
96744605,20422
96750050,20427
96756247,20430
96762452,20429
96768634,20428
96774869,20429
96781093,20425
96787270,20426
96793438,20426
96799640,20430
96805854,20430
96812043,20429
96818222,20436
96824459,20431
96835803,20422
96841979,20425
96848130,20426
96854373,20425
96860590,20432
96866778,20430
96872979,20429
96879856,20426
96885302,20425
96891538,20428
96897716,20422
96903926,20424
96910075,20426
96916267,20428
96922457,20427
96928663,20427
96933874,20430
96939303,20425
96945479,20430
96951659,20424
96957853,20423
96969304,20437
96975462,20437
96981671,20439
96987879,20433
96994061,20440
97000257,20438
97006451,20431
97012656,20439
97018849,20433
97025017,20435
97031220,20441
97037419,20435
97043586,20437
97049775,20438
97056001,20437
97062165,20434
97068363,20435
97073848,20439
97080073,20432
97086283,20438
97093120,20439
97104556,20441
97110716,20436
97116926,20437
97123173,20437
97129402,20440
97135625,20434
97141840,20438
97148015,20437
97154198,20439
97159630,20436
97165808,20440
97172013,20440
97178173,20435
97184386,20437
97190584,20444
97196822,20434
97203030,20436
97207465,20440
97213716,20439
97219950,20436
97226164,20441
97237570,20446
97243775,20444
97250069,20445
97256302,20452
97262584,20449
97268876,20453
97275080,20446
97281335,20445
97287532,20449
97293063,20453
97299909,20450
97306191,20448
97312430,20452
97318678,20446
97324926,20444
97331165,20449
97337407,20449
97342244,20444
97348474,20443
97354680,20450
97360903,20440
97372319,20432
97378525,20428
97384797,20427
97391048,20422
97397324,20425
97403533,20427
97409756,20429
97415975,20421
97422152,20421
97427624,20417
97433845,20418
97440013,20423
97446227,20416
97452489,20419
97458722,20422
97464963,20416
97471184,20422
97475684,20414
97481922,20420
97488183,20419
97494429,20420
97500647,20421
97506875,20421
97513738,20422
97519997,20425
97526229,20427
97532424,20430
97538624,20420
97544881,20417
97551115,20421
97557356,20424
97562565,20422
97568804,20424
97574971,20424
97581196,20422
97587442,20421
97593664,20416
97599896,20418
97606146,20421
97610990,20422
97617232,20414
97623448,20425
97629668,20422
97635876,20418
97647327,20414
97653524,20412
97659713,20420
97665902,20418
97672111,20416
97678393,20409
97684617,20413
97690877,20420
97697114,20414
97703365,20415
97709567,20417
97715771,20416
97722648,20416
97728936,20418
97735171,20416
97741402,20418
97746886,20421
97753153,20421
97759328,20420
97765543,20425
97771750,20423
97777981,20439
97784196,20438
97790433,20436
97796726,20430
97802956,20435
97809184,20436
97815439,20434
97821654,20433
97827884,20433
97834137,20439
97840363,20432
97846609,20438
97852866,20433
97859143,20438
97865397,20434
97871635,20438
97876898,20440
97882417,20436
97888636,20440
97894874,20435
97901088,20444
97907331,20441
97918772,20443
97925049,20447
97931255,20449
97938078,20444
97951178,20444
97957422,20446
97963676,20443
97968923,20446
97975110,20447
97981310,20445
97987511,20446
97993711,20449
97999955,20441
98006197,20442
98011658,20447
98017903,20443
98024119,20442
98030312,20443
98036487,20443
98047946,20452
98054123,20447
98060358,20453
98066569,20453
98072769,20450
98078991,20457
98085165,20453
98091365,20442
98097559,20454
98103034,20457
98109238,20448
98115411,20455
98121595,20449
98127814,20451
98134031,20445
98140265,20446
98144750,20449
98150967,20450
98157842,20444
98164075,20448
98170260,20449
98181626,20419
98187802,20425
98194074,20424
98200305,20427
98206527,20431
98212770,20428
98219012,20431
98225253,20421
98231479,20426
98237709,20426
98243968,20424
98250177,20428
98256420,20430
98262633,20433
98268893,20424
98275094,20436
98279940,20424
98286136,20431
98292365,20429
98298535,20429
98304767,20431
98316229,20425
98322421,20426
98328604,20429
98334849,20435
98341042,20427
98347224,20433
98353463,20426
98359696,20431
98366524,20431
98372750,20430
98378160,20435
98384407,20430
98390671,20427
98396946,20438
98403177,20434
98409434,20428
98413946,20429
98420148,20434
98426338,20436
98432623,20426
98438824,20423
98450283,20431
98456512,20426
98462745,20429
98468990,20427
98475230,20429
98481485,20436
98487686,20425
98493916,20434
98500171,20429
98506372,20431
98511844,20427
98518052,20429
98524275,20432
98530504,20428
98536762,20432
98542980,20434
98548206,20428
98553719,20436
98559936,20426
98566183,20430
98572429,20431
98579297,20433
98585469,20437
98591750,20438
98597993,20434
98604202,20436
98610482,20434
98616736,20439
98622966,20435
98629211,20440
98635433,20435
98641639,20441
98646854,20436
98653085,20438
98659310,20439
98665525,20435
98671729,20438
98677971,20439
98683448,20444
98689638,20437
98695856,20440
98702079,20438
98708316,20444
98714543,20441
98725984,20441
98732274,20445
98738522,20442
98744769,20439
98751003,20445
98757238,20443
98763458,20451
98769688,20449
98775955,20449
98781450,20451
98787668,20451
98794567,20448
98800814,20452
98807083,20455
98813304,20455
98817765,20456
98823996,20455
98830231,20456
98836467,20448
98842722,20449
98848970,20454
98860435,20463
98866675,20457
98872946,20459
98879195,20455
98885427,20462
98891631,20464
98897837,20458
98904057,20465
98910287,20458
98915724,20461
98921938,20462
98928128,20466
98934378,20463
98940645,20462
98946917,20462
98952145,20464
98958398,20459
98964608,20456
98970871,20462
98977041,20461
98983263,20461
98994923,20434
99001162,20442
99008029,20437
99014230,20440
99020512,20437
99026767,20439
99033012,20434
99039219,20431
99045425,20439
99050689,20434
99056840,20437
99063056,20440
99069310,20436
99075526,20440
99081751,20435
99086579,20444
99092817,20437
99099052,20434
99105260,20438
99111507,20437
99117745,20440
99129204,20438
99135411,20441
99141614,20439
99147880,20440
99154060,20442
99160309,20438
99166551,20445
99172796,20446
99179044,20437
99184492,20441
99190772,20439
99203605,20439
99209860,20448
99216185,20442
99223093,20443
99229294,20442
99235484,20443
99241701,20440
99247925,20446
99259337,20446
99265560,20448
99271772,20446
99278006,20443
99284271,20451
99290520,20445
99296771,20441
99302995,20446
99309233,20448
99314708,20442
99320952,20446
99327148,20442
99333390,20447
99339563,20451
99345726,20444
99351949,20441
99356444,20440
99362678,20446
99368849,20447
99375075,20445
99381337,20443
99392714,20455
99398952,20456
99405203,20457
99411401,20451
99417643,20449
99423870,20453
99430082,20454
99436988,20451
99443140,20454
99448599,20452
99454844,20451
99461075,20455
99467310,20459
99473536,20452
99479767,20455
99486040,20446
99490546,20451
99496765,20450
99502982,20455
99509204,20457
99515412,20457
99526854,20459
99533051,20461
99539293,20457
99545561,20462
99551756,20458
99558021,20461
99564313,20458
99570541,20459
99576757,20464
99583005,20465
99589171,20457
99595415,20468
99601592,20466
99607763,20465
99613967,20458
99620184,20467
99625012,20462
99631227,20468
99637411,20470
99643624,20469
99650450,20466
99661837,20472
99668021,20476
99674186,20473
99680441,20474
99686653,20469
99692824,20475
99699048,20476
99705275,20474
99711476,20475
99717687,20475
99723088,20478
99729256,20475
99735363,20471
99741589,20476
99747757,20476
99754002,20476
99759186,20475
99765398,20474
99771604,20473
99777759,20474
99783919,20468
99790123,20477
99796363,20459
99802505,20459
99808694,20459
99814872,20453
99821088,20461
99827314,20453
99833530,20449
99839761,20449
99846009,20447
99852224,20447
99858395,20452
99864614,20452
99870856,20453
99877075,20452
99883341,20451
99889529,20454
99895034,20451
99900241,20452
99906485,20455
99912719,20450
99918987,20454
99930719,20455
99936919,20460
99943138,20458
99949387,20460
99955633,20454
99961836,20457
99968039,20461
99974265,20463
99980523,20466
99986762,20462
99992028,20450
99998249,20462
100004407,20457
100010693,20456
100016956,20461
100023188,20459
100028660,20458
100033828,20460
100040066,20458
100046282,20459
100052507,20456
100058692,20459
100064870,20454
100071623,20454
100077830,20451
100084035,20454
100090285,20449
100096491,20459
100102697,20458
100108922,20450
100115107,20455
100121341,20456
100126746,20459
100132976,20463
100139184,20458
100145374,20452
100151579,20456
100157749,20459
100162955,20454
100168396,20461
100174592,20459
100180782,20456
100186990,20461
100193167,20454
100204550,20462
100210766,20456
100216987,20461
100223163,20458
100229395,20466
100235629,20460
100241779,20456
100248007,20458
100254148,20457
100260380,20460
100266553,20454
100272717,20464
100279414,20466
100285674,20458
100291914,20466
100297319,20465
100302598,20459
100308772,20460
100314979,20458
100321151,20469
100327364,20467
100339017,20467
100345164,20461
100351381,20462
100357603,20470
100363822,20470
100370026,20463
100376233,20470
100382406,20469
100388585,20465
100394797,20467
100400058,20472
100406236,20473
100412442,20467
100418678,20475
100424904,20465
100431091,20467
100437348,20475
100443559,20474
100456640,20472
100462888,20471
100469134,20471
100475306,20470
100481471,20470
100487668,20470
100493888,20471
100500734,20470
100506975,20470
100513198,20474
100519422,20469
100525640,20467
100530856,20470
100537027,20468
100543192,20464
100549385,20469
100555596,20468
100561028,20466
100567288,20469
100572523,20468
100578742,20459
100584969,20458
100591127,20458
100597321,20464
100608965,20419
100615110,20416
100621334,20418
100627515,20415
100633703,20415
100639877,20427
100646082,20416
100652269,20420
100658443,20421
100664606,20418
100670772,20421
100676986,20427
100683178,20430
100689373,20420
100694569,20424
100700752,20431
100706897,20425
100713125,20429
100719372,20421
100725563,20427
100731761,20431
100743389,20448
100749588,20457
100755760,20457
100761987,20460
100768177,20450
100774400,20455
100780624,20463
100786847,20462
100793045,20459
100799249,20457
100804454,20462
100810652,20462
100816863,20467
100823112,20469
100829347,20463
100835549,20467
100841021,20469
100847250,20472
100853443,20472
100859658,20473
100865864,20482
100877288,20488
100883520,20487
100889755,20491
100895935,20483
100902118,20483
100908305,20488
100914463,20489
100921301,20487
100927441,20487
100933606,20489
100939022,20483
100945201,20488
100951364,20495
100957588,20487
100963761,20498
100968968,20492
100975174,20490
100981400,20496
100987585,20494
100993752,20489
100999926,20492
101006081,20495
101012281,20409
101018479,20401
101024627,20394
101030793,20399
101037012,20394
101043178,20394
101049415,20391
101055604,20379
101061776,20383
101067972,20384
101073423,20378
101079596,20380
101085776,20377
101091999,20371
101098178,20372
101103421,20365
101109622,20363
101115012,20358
101121192,20364
101127368,20360
101134179,20354
101140340,20349
101151699,20312
101157901,20313
101164123,20311
101170354,20306
101176563,20313
101182748,20304
101188961,20300
101195138,20288
101201326,20288
101207522,20282
101213717,20280
101219960,20277
101226200,20270
101232417,20271
101237916,20265
101244092,20263
101249653,20254
101255898,20256
101262112,20246
101268293,20250
101274498,20243
101285949,20192
101292114,20196
101298361,20197
101304494,20189
101310686,20194
101316903,20194
101323105,20190
101329334,20193
101335487,20189
101342364,20196
101347795,20193
101353994,20189
101360222,20185
101366405,20193
101371631,20191
101377819,20186
101384030,20188
101390212,20191
101396431,20194
101402629,20191
101408813,20185
101420434,20209
101426620,20209
101432826,20214
101439058,20208
101445271,20214
101451477,20208
101457735,20208
101463964,20213
101470180,20212
101476369,20211
101481604,20212
101487833,20205
101494088,20211
101500355,20209
101506576,20209
101512813,20214
101519096,20213
101524537,20221
101530772,20211
101536969,20220
101543194,20214
101549350,20215
101556233,20246
101562492,20238
101568726,20245
101574974,20242
101581212,20238
101587434,20244
101593696,20243
101599969,20249
101606193,20243
101612435,20240
101617689,20241
101623903,20248
101630144,20244
101636404,20248
101641870,20249
101648100,20238
101654360,20245
101659623,20254
101665789,20246
101672024,20252
101678267,20249
101684495,20244
101702809,20273
101709053,20274
101715377,20278
101721678,20279
101727910,20279
101734137,20277
101740344,20278
101745581,20285
101751805,20282
101758029,20280
101764233,20286
101769795,20282
101776701,20284
101782937,20284
101788154,20286
101794381,20283
101800618,20287
101806834,20294
101813090,20293
101824769,20332
101831008,20335
101837194,20331
101843367,20331
101849569,20328
101855774,20332
101861966,20333
101868153,20335
101874330,20340
101880497,20333
101886709,20333
101892913,20336
101899071,20333
101904280,20336
101910526,20336
101916744,20334
101922165,20336
101928355,20338
101934518,20335
101940713,20342
101946911,20339
101953053,20339
101959251,20337
101965455,20330
101971667,20329
101977877,20334
101984724,20336
101990964,20335
101997148,20332
102003345,20331
102009543,20333
102015723,20335
102020965,20334
102027160,20336
102033407,20338
102038858,20333
102045083,20332
102051326,20336
102056495,20337
102062651,20333
102068874,20331
102075062,20335
102081237,20337
102087437,20331
102093628,20344
102099795,20345
102106027,20348
102112267,20345
102118448,20343
102124669,20346
102130898,20346
102137108,20345
102143284,20345
102149479,20339
102154922,20344
102161112,20338
102167310,20340
102173492,20345
102179682,20345
102185897,20338
102191104,20339
102197957,20341
102204177,20342
102210394,20335
102216584,20337
102222743,20346
102234358,20343
102240560,20351
102246711,20346
102252979,20350
102259213,20349
102265449,20354
102271703,20354
102277919,20356
102284098,20349
102289305,20354
102295503,20354
102301732,20357
102307918,20358
102313330,20348
102319513,20349
102325687,20352
102331910,20357
102338111,20351
102344318,20356
102350489,20353
102356692,20352
102368098,20345
102374307,20344
102380524,20338
102386713,20338
102392935,20346
102399118,20337
102405937,20338
102412173,20336
102418416,20330
102423865,20326
102430110,20334
102436322,20328
102442529,20323
102447762,20322
102453963,20320
102460149,20325
102465623,20324
102471833,20321
102478024,20320
102484265,20319
102490465,20318
102501919,20298
102508109,20307
102514347,20298
102520538,20297
102526728,20301
102532934,20301
102539142,20293
102545326,20295
102551551,20300
102557800,20299
102564037,20294
102570256,20293
102576504,20294
102581958,20290
102588231,20299
102594466,20290
102599723,20296
102605950,20295
102612158,20300
102619016,20294
102625289,20294
102637010,20270
102643145,20275
102649359,20275
102655595,20271
102661823,20277
102668066,20281
102674296,20278
102680512,20273
102686740,20277
102692989,20287
102698215,20281
102704455,20282
102710666,20283
102716108,20280
102722332,20276
102728626,20280
102734884,20280
102741103,20284
102747324,20285
102753514,20282
102759751,20278
102771239,20271
102777486,20272
102783720,20271
102789957,20273
102796185,20269
102802391,20266
102808564,20268
102814758,20274
102821004,20270
102827224,20273
102833429,20274
102839640,20272
102845907,20264
102851415,20271
102857649,20275
102863858,20278
102869094,20275
102875340,20278
102881525,20273
102887759,20276
102893981,20275
102905694,20283
102911920,20290
102918125,20286
102924313,20286
102930565,20286
102936776,20287
102943021,20284
102955878,20287
102962149,20294
102968388,20293
102974652,20287
102979916,20293
102986142,20290
102992388,20292
102998626,20296
103004828,20290
103011110,20288
103017343,20294
103023533,20300
103035298,20307
103041541,20310
103047807,20306
103054715,20301
103060977,20304
103067221,20300
103073443,20310
103079724,20309
103085953,20309
103092179,20309
103097402,20312
103103636,20307
103109849,20309
103115312,20309
103121582,20306
103127784,20314
103133019,20317
103139171,20311
103145381,20313
103151583,20309
103157739,20317
103163941,20312
103170147,20320
103176346,20322
103182557,20318
103188771,20319
103194998,20318
103201198,20320
103207428,20319
103213608,20319
103219777,20315
103225990,20318
103231416,20316
103237595,20321
103243769,20315
103248983,20329
103255217,20315
103262068,20312
103267574,20322
103273785,20318
103279993,20315
103286191,20318
103292362,20316
103298553,20318
103309973,20297
103316139,20297
103322356,20291
103328554,20295
103334776,20291
103340981,20298
103347146,20298
103353377,20291
103359617,20297
103365041,20299
103371211,20295
103377405,20296
103383590,20298
103389757,20290
103395997,20296
103402217,20296
103408407,20297
103414575,20295
103420791,20295
103427003,20298
103433197,20296
103444619,20305
103450822,20309
103457071,20305
103463291,20305
103469509,20308
103476373,20305
103482596,20309
103488778,20311
103494945,20304
103500403,20307
103506616,20304
103512822,20307
103518046,20309
103524258,20309
103530455,20303
103536670,20308
103542143,20307
103548348,20304
103554530,20310
103560728,20306
103566928,20307
103578337,20304
103584512,20304
103590679,20311
103596898,20301
103603096,20309
103609355,20308
103615569,20304
103621782,20308
103627960,20304
103634132,20302
103640331,20305
103646563,20305
103652034,20309
103658246,20298
103664427,20310
103670635,20304
103676823,20301
103683005,20306
103689803,20306
103695991,20310
103702188,20310
103713603,20315
103719802,20317
103726032,20309
103732187,20317
103738429,20315
103744622,20312
103750802,20321
103756983,20315
103763163,20317
103769342,20319
103774779,20317
103780994,20320
103786204,20320
103792429,20314
103798623,20323
103804833,20323
103811017,20314
103816419,20315
103822619,20317
103828797,20320
103834970,20311
103841203,20314
103847364,20316
103853612,20321
103859793,20317
103866024,20317
103872246,20317
103878481,20318
103884662,20314
103890808,20315
103897711,20309
103903936,20313
103909146,20314
103915365,20307
103920885,20311
103927083,20303
103933252,20304
103939421,20305
103945604,20308
103950819,20307
103957003,20315
103963172,20310
103969429,20302
103975606,20306
103987241,20297
103993417,20295
103999590,20298
104005769,20298
104012002,20296
104018184,20301
104024364,20296
104030545,20290
104036749,20296
104042995,20298
104049185,20300
104055369,20297
104061569,20303
104067781,20299
104074011,20299
104080200,20296
104085439,20300
104091661,20300
104097829,20299
104104031,20296
104110864,20298
104122516,20297
104128705,20306
104134907,20305
104141131,20305
104147366,20304
104153606,20302
104159822,20299
104166026,20306
104172185,20303
104178381,20298
104183598,20296
104189821,20299
104201911,20296
104208175,20302
104214432,20295
104220624,20297
104226797,20300
104233015,20295
104239246,20292
104250625,20295
104256824,20298
104263028,20295
104269220,20300
104275445,20305
104281667,20301
104287825,20295
104294028,20305
104300213,20298
104306408,20294
104312596,20298
104318793,20303
104324295,20304
104331109,20303
104337286,20300
104343472,20307
104349687,20303
104354876,20300
104361085,20307
104367246,20305
104373422,20306
104379615,20309
104385812,20314
104391984,20311
104398177,20312
104404423,20310
104410651,20308
104416855,20313
104423062,20322
104429213,20310
104435407,20308
104441567,20313
104447108,20313
104453379,20309
104458885,20315
104465101,20312
104471328,20313
104477538,20313
104483746,20314
104488928,20312
104495104,20311
104501295,20313
104507487,20317
104513668,20313
104525284,20304
104531491,20303
104538384,20300
104544612,20299
104550797,20311
104557016,20298
104563196,20302
104569394,20301
104575565,20297
104580764,20293
104586962,20293
104593123,20292
104599344,20294
104605557,20292
104611780,20292
104618026,20296
104623451,20295
104629678,20285
104635908,20288
104642101,20288
104648322,20289
104659808,20296
104666072,20299
104672318,20289
104678563,20298
104684799,20298
104691046,20292
104697248,20293
104703486,20291
104709736,20300
104715989,20298
104722241,20297
104728492,20303
104733978,20307
104740205,20295
104746478,20302
104753300,20293
104758531,20295
104764775,20300
104771011,20299
104777233,20299
104783464,20297
104795218,20293
104801411,20302
104807606,20304
104813860,20300
104820113,20297
104826344,20300
104832585,20301
104838764,20297
104845024,20300
104851263,20301
104856764,20300
104863022,20299
104868259,20303
104874464,20299
104880661,20300
104886906,20295
104892398,20301
104898631,20302
104904889,20303
104911116,20291
104917338,20304
104928843,20306
104935092,20307
104941346,20307
104947595,20309
104953794,20304
104960656,20310
104966930,20308
104973183,20315
104979425,20307
104985654,20312
104991129,20308
104997340,20307
105002566,20309
105008751,20316
105014981,20308
105021229,20311
105026700,20310
105032939,20309
105039125,20313
105045347,20312
105051536,20308
105063001,20318
105069207,20314
105075457,20319
105081664,20320
105087906,20312
105094115,20319
105100360,20319
105106520,20314
105112639,20313
105118777,20320
105125047,20318
105131279,20321
105136780,20319
105143039,20320
105149314,20321
105155592,20321
105161805,20316
105168024,20318
105174918,20317
105181127,20317
105187326,20324
105198766,20301
105205020,20296
105211160,20302
105217392,20296
105223568,20294
105229811,20300
105236024,20294
105242284,20295
105248522,20294
105254747,20295
105260234,20289
105266451,20295
105271712,20288
105277953,20293
105284176,20292
105290395,20296
105295860,20293
105302106,20290
105308325,20294
105314568,20295
105320810,20292
105332314,20292
105338555,20293
105344778,20294
105351039,20294
105357254,20293
105363481,20288
105369683,20296
105375926,20296
105382139,20295
105389024,20297
105394472,20297
105400712,20298
105405975,20295
105412176,20296
105418402,20299
105424629,20293
105430830,20292
105437058,20295
105443217,20297
105461608,20300
105467839,20299
105474074,20293
105480306,20297
105486490,20293
105492737,20296
105498998,20295
105505260,20299
105511491,20302
105517734,20295
105523267,20299
105529487,20295
105534756,20302
105541005,20299
105547234,20300
105553473,20301
105559675,20300
105565917,20297
105572142,20299
105578365,20299
105584560,20301
105596281,20312
105602554,20310
105609372,20308
105615536,20314
105621869,20307
105628116,20310
105634323,20307
105640540,20309
105646802,20313
105653014,20314
105658218,20314
105664444,20309
105669952,20312
105676181,20315
105682413,20312
105688565,20311
105694810,20310
105700038,20316
105706240,20312
105712474,20308
105718696,20308
105724926,20314
105731175,20325
105737405,20326
105743629,20321
105749851,20321
105756102,20321
105762345,20322
105768554,20323
105774790,20324
105781052,20323
105787294,20320
105792779,20325
105798968,20323
105804190,20322
105810349,20320
105817172,20321
105823477,20320
105829704,20325
105835195,20319
105841420,20322
105847640,20322
105853854,20321
105860077,20322
105871511,20320
105877752,20317
105884011,20309
105890258,20312
105896460,20310
105902701,20311
105908950,20313
105915173,20305
105921390,20307
105926892,20309
105933152,20304
105938393,20306
105944615,20301
105950848,20303
105957087,20307
105963334,20303
105968822,20303
105975060,20303
105981231,20302
105987450,20307
105993702,20300
106005121,20309
106011367,20311
106017613,20313
106023884,20310
106030743,20315
